timestamp,x,y,z
336682070842,0.103516,-0.310547,0.950195
336682094418,0.0791016,-0.308105,0.947754
336682123337,0.0961914,-0.306152,0.929199
336682131948,0.0849609,-0.303223,0.946289
336682153266,0.0913086,-0.304688,0.950684
336682183892,0.0712891,-0.314941,0.95459
336682231004,0.0756836,-0.322754,0.952637
336682231781,0.078125,-0.319336,0.956543
336682238306,0.0810547,-0.320312,0.97168
336682252691,0.0771484,-0.312988,0.950684
336682274015,0.0791016,-0.308594,0.95166
336682288301,0.0854492,-0.307129,0.947266
336682341365,0.0883789,-0.30127,0.951172
336682342114,0.0888672,-0.312012,0.952148
336682355627,0.0810547,-0.31543,0.950195
336682372089,0.0800781,-0.309082,0.946289
336682394549,0.0776367,-0.311523,0.955566
336682409579,0.0766602,-0.305664,0.951172
336682432092,0.0864258,-0.319336,0.955566
336682461303,0.0795898,-0.315918,0.953125
336682475648,0.0732422,-0.318359,0.944336
336682492153,0.0805664,-0.311523,0.943848
336682514572,0.0854492,-0.314941,0.946289
336682535665,0.0849609,-0.314453,0.954102
336682552106,0.081543,-0.314941,0.953613
336682574618,0.0844727,-0.312988,0.949219
336682588173,0.0810547,-0.310547,0.958008
336682611281,0.0791016,-0.3125,0.958496
336682633833,0.0834961,-0.316895,0.953613
336682648142,0.0766602,-0.312988,0.952637
336682679498,0.0844727,-0.311035,0.947266
336682693858,0.0869141,-0.310059,0.952148
336682708200,0.0844727,-0.311035,0.953613
336682731332,0.0834961,-0.310059,0.947266
336682753782,0.0834961,-0.318359,0.942871
336682768132,0.0844727,-0.3125,0.949707
336682791313,0.0854492,-0.310059,0.950684
336682813767,0.078125,-0.315918,0.94873
336682828209,0.0805664,-0.314941,0.94873
336682851332,0.0810547,-0.318359,0.957031
336682873825,0.0854492,-0.306641,0.950195
336682888180,0.0786133,-0.316406,0.945312
336682911363,0.0791016,-0.310547,0.949219
336682933849,0.0810547,-0.311523,0.952637
336682948190,0.0820312,-0.3125,0.949219
336682971377,0.0820312,-0.313477,0.949707
336682993855,0.0810547,-0.312988,0.951172
336683008131,0.0854492,-0.308105,0.949707
336683031305,0.081543,-0.317871,0.95752
336683053798,0.0849609,-0.319336,0.949707
336683068151,0.0849609,-0.312012,0.947754
336683091400,0.0820312,-0.315918,0.944336
336683113828,0.0844727,-0.317383,0.944824
336683128104,0.0810547,-0.32666,0.943359
336683151049,0.0874023,-0.31543,0.947266
336683173824,0.0805664,-0.322266,0.945801
336683188161,0.0717773,-0.30957,0.952637
336683211366,0.0810547,-0.314941,0.953125
336683233627,0.0717773,-0.318848,0.957031
336683248138,0.0639648,-0.308105,0.96875
336683271257,0.0693359,-0.317871,0.960449
336683293825,0.0800781,-0.309082,0.959473
336683308069,0.0854492,-0.31543,0.953125
336683330601,0.0844727,-0.313965,0.944824
336683353572,0.0844727,-0.319336,0.949707
336683368160,0.0830078,-0.319336,0.945312
336683390646,0.0800781,-0.320801,0.950684
336683413157,0.078125,-0.32373,0.945312
336683428133,0.0839844,-0.317871,0.947266
336683450641,0.0795898,-0.321777,0.95166
336683473183,0.0849609,-0.317871,0.949707
336683488238,0.0825195,-0.321777,0.950195
336683510716,0.0844727,-0.320312,0.947266
336683533210,0.0878906,-0.315918,0.952637
336683548188,0.0766602,-0.325684,0.943848
336683570684,0.078125,-0.318359,0.954102
336683593208,0.0771484,-0.317383,0.95752
336683608234,0.0795898,-0.312012,0.947754
336683630637,0.081543,-0.316406,0.946777
336683653174,0.0771484,-0.314941,0.955566
336683668199,0.0756836,-0.320801,0.954102
336683690686,0.0795898,-0.325684,0.95166
336683713220,0.0878906,-0.316406,0.953125
336683729627,0.0825195,-0.319824,0.951172
336683752173,0.0849609,-0.316895,0.949707
336683773231,0.0795898,-0.320312,0.949707
336683788210,0.0825195,-0.321289,0.954102
336683810661,0.0742188,-0.31543,0.944824
336683833203,0.0800781,-0.321289,0.945801
336683848214,0.0820312,-0.314941,0.950195
336683870686,0.0830078,-0.323242,0.946289
336683893287,0.0825195,-0.312012,0.954102
336683908172,0.0786133,-0.321777,0.950684
336683938839,0.0830078,-0.316406,0.947266
336683953188,0.0791016,-0.319824,0.950195
336683968191,0.0737305,-0.316406,0.950195
336683990751,0.0766602,-0.310059,0.950684
336684013152,0.0751953,-0.317871,0.951172
336684028166,0.0786133,-0.314941,0.950684
336684050675,0.0805664,-0.314453,0.949707
336684073200,0.0839844,-0.32373,0.947266
336684091032,0.0776367,-0.314941,0.945801
336684110665,0.0737305,-0.320801,0.952148
336684133241,0.0761719,-0.310059,0.958008
336684165899,0.081543,-0.3125,0.963379
336684170723,0.0849609,-0.308105,0.955078
336684193274,0.0874023,-0.316406,0.941406
336684211164,0.0791016,-0.319824,0.952148
336684230711,0.0756836,-0.325684,0.942383
336684253170,0.0805664,-0.325684,0.945312
336684276378,0.0805664,-0.319336,0.950684
336684290714,0.0800781,-0.316895,0.952637
336684313220,0.0839844,-0.311523,0.953613
336684329644,0.0825195,-0.310547,0.958984
336684350759,0.0805664,-0.313477,0.950684
336684373242,0.0766602,-0.319336,0.958008
336684389658,0.0776367,-0.316406,0.95166
336684410744,0.0844727,-0.312988,0.952637
336684433180,0.0825195,-0.317871,0.955566
336684455736,0.0825195,-0.315918,0.948242
336684470665,0.0786133,-0.314941,0.948242
336684493294,0.0810547,-0.318848,0.954102
336684509614,0.0771484,-0.311523,0.944336
336684532199,0.0810547,-0.321289,0.950195
336684553225,0.0825195,-0.312988,0.94873
336684569756,0.0834961,-0.322266,0.949219
336684590729,0.0805664,-0.317871,0.958008
336684613185,0.0854492,-0.318359,0.950684
336684629636,0.0874023,-0.314453,0.953125
336684650766,0.0898438,-0.314453,0.946777
336684673260,0.0805664,-0.322266,0.951172
336684689622,0.0800781,-0.317871,0.948242
336684710701,0.0742188,-0.318359,0.952148
336684733175,0.0771484,-0.312012,0.95752
336684749699,0.0849609,-0.318359,0.946777
336684770717,0.0844727,-0.319824,0.946289
336684793229,0.0869141,-0.318848,0.957031
336684809703,0.0854492,-0.317871,0.951172
336684830716,0.0805664,-0.312012,0.947266
336684853325,0.081543,-0.322266,0.955078
336684869677,0.0805664,-0.316895,0.954102
336684890753,0.0795898,-0.318359,0.95166
336684913265,0.0844727,-0.319336,0.944824
336684929570,0.0791016,-0.318848,0.942383
336684950778,0.0810547,-0.320312,0.942871
336684973242,0.0795898,-0.318359,0.951172
336684991104,0.0771484,-0.318359,0.95459
336685010750,0.0859375,-0.316895,0.946777
336685033215,0.0864258,-0.31543,0.949707
336685049657,0.0854492,-0.319824,0.948242
336685070827,0.0869141,-0.314453,0.950195
336685093207,0.0883789,-0.314941,0.943359
336685115757,0.0878906,-0.314941,0.95166
336685132182,0.0820312,-0.321777,0.95166
336685153264,0.0839844,-0.319336,0.94873
336685169714,0.0786133,-0.322754,0.950195
336685192212,0.0878906,-0.321289,0.946289
336685213237,0.09375,-0.315918,0.949707
336685235782,0.0883789,-0.317383,0.950195
336685252215,0.0791016,-0.312012,0.95166
336685273252,0.0805664,-0.320312,0.953125
336685291103,0.0810547,-0.316895,0.950684
336685312246,0.0825195,-0.315918,0.953125
336685333249,0.0844727,-0.319336,0.945312
336685349714,0.0805664,-0.316406,0.952148
336685378275,0.0834961,-0.320312,0.955078
336685394729,0.0844727,-0.317871,0.95752
336685409651,0.0825195,-0.317871,0.937012
336685438281,0.0830078,-0.314453,0.947266
336685453187,0.081543,-0.320312,0.95166
336685469713,0.0898438,-0.313477,0.954102
336685492205,0.0883789,-0.315918,0.949219
336685513320,0.0786133,-0.317871,0.949707
336685529717,0.0795898,-0.316406,0.954102
336685552274,0.0751953,-0.323242,0.957031
336685573294,0.0859375,-0.317383,0.94873
336685589689,0.0786133,-0.314453,0.954102
336685612250,0.0834961,-0.314453,0.951172
336685633277,0.0820312,-0.317383,0.963867
336685649713,0.0844727,-0.30957,0.964844
336685673630,0.0864258,-0.307617,0.954102
336685693928,0.0874023,-0.311035,0.946289
336685710353,0.0942383,-0.314941,0.951172
336685731450,0.0898438,-0.321289,0.949219
336685753716,0.0834961,-0.323242,0.9375
336685768920,0.0849609,-0.323242,0.946289
336685791393,0.0756836,-0.324707,0.938965
336685813917,0.0766602,-0.308105,0.947266
336685828947,0.0859375,-0.314941,0.954102
336685851483,0.0830078,-0.306641,0.951172
336685873754,0.0834961,-0.302246,0.957031
336685888947,0.0932617,-0.306641,0.958984
336685911427,0.104004,-0.29834,0.962891
336685933926,0.117676,-0.287598,0.960938
336685948951,0.126465,-0.286621,0.95752
336685971432,0.138184,-0.274902,0.953125
336685993740,0.147461,-0.271973,0.964844
336686010309,0.134766,-0.270996,0.964355
336686031380,0.14209,-0.257324,0.953125
336686053992,0.131836,-0.250488,0.948242
336686068924,0.129395,-0.266113,0.942383
336686091236,0.126465,-0.263672,0.955078
336686113937,0.125977,-0.267578,0.938477
336686128899,0.126465,-0.271484,0.938477
336686151450,0.150391,-0.308105,0.951172
336686173784,0.141602,-0.331543,0.961426
336686188890,0.131348,-0.326172,0.961914
336686211380,0.115234,-0.331543,0.945801
336686233977,0.111816,-0.327148,0.946289
336686248889,0.113281,-0.344727,0.947266
336686271424,0.101562,-0.34082,0.953125
336686293873,0.0947266,-0.334473,0.949707
336686310374,0.103516,-0.328613,0.940918
336686331558,0.109375,-0.327148,0.946289
336686353958,0.0996094,-0.34375,0.942871
336686370430,0.0917969,-0.32373,0.958496
336686391433,0.0878906,-0.337891,0.955078
336686413998,0.0908203,-0.330078,0.960938
336686430368,0.0776367,-0.327148,0.987793
336686451475,0.0634766,-0.344727,1.00537
336686473987,0.0532227,-0.343262,1.00195
336686490422,0.0527344,-0.339355,0.999023
336686511507,0.0478516,-0.345703,1.02393
336686534021,0.0200195,-0.348633,1.04541
336686550411,-0.00537109,-0.339844,1.05322
336686571431,-0.03125,-0.319336,1.05322
336686601434,-0.0551758,-0.301758,1.06396
336686610341,-0.0371094,-0.322754,1.09424
336686631394,-0.0629883,-0.344238,1.09131
336686655352,-0.120117,-0.314453,1.06738
336686670415,-0.152344,-0.304199,1.06152
336686691487,-0.189941,-0.318848,1.04688
336686713989,-0.227539,-0.334473,1.03613
336686730386,-0.26416,-0.32373,0.983887
336686751506,-0.286621,-0.297363,0.953613
336686773710,-0.327637,-0.310059,0.915527
336686790384,-0.342285,-0.297852,0.891113
336686811537,-0.363281,-0.288086,0.862793
336686834012,-0.390137,-0.282715,0.836426
336686850363,-0.401855,-0.276367,0.845215
336686871432,-0.414551,-0.257324,0.80957
336686893990,-0.438477,-0.239258,0.762695
336686910385,-0.467773,-0.247559,0.777344
336686931502,-0.464355,-0.237305,0.776855
336686954001,-0.468262,-0.220215,0.763672
336686970449,-0.505859,-0.189453,0.742676
336686991448,-0.507324,-0.152832,0.72168
336687013986,-0.508301,-0.161133,0.740723
336687029719,-0.534668,-0.139648,0.746582
336687051476,-0.546875,-0.144531,0.756348
336687074013,-0.557617,-0.115234,0.75
336687089723,-0.584473,-0.101074,0.74707
336687111405,-0.580566,-0.100586,0.743164
336687133760,-0.600098,-0.108398,0.765625
336687156430,-0.603516,-0.0864258,0.749512
336687171455,-0.601562,-0.0703125,0.744141
336687201462,-0.613281,-0.0693359,0.776855
336687223939,-0.587891,-0.0712891,0.777832
336687232907,-0.577148,-0.0678711,0.784668
336687253700,-0.572266,-0.0493164,0.78418
336687271205,-0.569824,-0.0708008,0.79834
336687292873,-0.536133,-0.0317383,0.806641
336687313962,-0.500488,-0.0302734,0.824707
336687329750,-0.489746,-0.0571289,0.84668
336687352860,-0.449707,-0.0429688,0.849609
336687373722,-0.421875,-0.0131836,0.842773
336687389710,-0.420898,-0.0351562,0.854004
336687412902,-0.410645,-0.0541992,0.870605
336687433974,-0.368652,-0.0273438,0.887207
336687449770,-0.344238,-0.0175781,0.898926
336687472880,-0.354004,-0.0229492,0.908691
336687493961,-0.342285,-0.0214844,0.919922
336687516435,-0.295898,-0.0268555,0.96875
336687532858,-0.26123,-0.0576172,0.970703
336687553985,-0.263184,-0.0629883,0.975586
336687569735,-0.245117,-0.0371094,0.970703
336687592909,-0.219727,-0.0400391,0.998047
336687613949,-0.200684,-0.0708008,1.00342
336687636901,-0.170898,-0.0732422,1.01709
336687652922,-0.150879,-0.0429688,1.02686
336687673957,-0.119141,-0.0424805,1.04297
336687689702,-0.104004,-0.0639648,1.0498
336687712859,-0.0966797,-0.0761719,1.0498
336687733975,-0.0830078,-0.0488281,1.06152
336687756487,-0.0595703,-0.0512695,1.07031
336687772907,-0.00927734,-0.0683594,1.08203
336687793972,-0.0239258,-0.0795898,1.08057
336687809748,-0.0239258,-0.0664062,1.08057
336687832923,-0.0234375,-0.0556641,1.06006
336687854002,0.0166016,-0.0737305,1.06787
336687869759,0.0322266,-0.0859375,1.05664
336687892906,0.027832,-0.0981445,1.04102
336687913984,0.0117188,-0.0737305,1.02051
336687929729,0.0151367,-0.0791016,1.0166
336687952880,0.0209961,-0.0849609,1.00879
336687974009,0.0244141,-0.0952148,1.00684
336687989756,0.0454102,-0.0898438,0.991699
336688012258,0.0478516,-0.0791016,0.988281
336688033750,0.0532227,-0.0986328,0.975098
336688049782,0.0541992,-0.0908203,0.97998
336688072264,0.0830078,-0.118164,0.998047
336688094016,0.10791,-0.123535,0.990234
336688109825,0.0966797,-0.122559,0.972656
336688132298,0.0766602,-0.11084,0.974609
336688155463,0.0791016,-0.12793,0.983887
336688169774,0.107422,-0.163574,0.993652
336688192258,0.0791016,-0.152832,0.98291
336688215487,0.0610352,-0.137207,0.97168
336688229782,0.065918,-0.135254,0.971191
336688266473,0.0820312,-0.158691,0.993652
336688275559,0.074707,-0.174316,0.998047
336688296634,0.0483398,-0.158691,0.977539
336688312304,0.0410156,-0.14209,0.990723
336688335499,0.0463867,-0.159668,0.990723
336688356530,0.0541992,-0.182129,0.999512
336688372333,0.0405273,-0.177246,0.996094
336688395562,0.0268555,-0.17334,0.994141
336688416622,0.0219727,-0.17041,0.984375
336688432310,0.0307617,-0.189453,0.999512
336688456224,0.0356445,-0.197754,0.996094
336688476572,0.0317383,-0.189453,0.994141
336688492324,0.0292969,-0.209961,0.972168
336688515563,0.0371094,-0.223633,0.96875
336688536307,0.0473633,-0.240723,0.94873
336688552327,0.0610352,-0.251953,0.958008
336688575556,0.0551758,-0.257324,0.958008
336688596657,0.0341797,-0.250977,0.947266
336688612342,0.0322266,-0.243652,0.95752
336688635449,0.043457,-0.239258,0.954102
336688656487,0.0458984,-0.229492,0.964844
336688672395,0.0244141,-0.230957,0.967285
336688695562,0.0429688,-0.234863,0.982422
336688716610,0.078125,-0.242676,0.987793
336688732343,0.0917969,-0.246582,0.992188
336688755552,0.0839844,-0.255371,0.991211
336688776538,0.0766602,-0.269043,0.976074
336688792298,0.0947266,-0.279297,0.978027
336688805936,0.112305,-0.26709,0.964844
336688828335,0.124023,-0.241699,0.974121
336688851608,0.120117,-0.248047,0.971191
336688865884,0.110352,-0.26709,0.958496
336688888431,0.119141,-0.266602,0.952148
336688911600,0.131348,-0.273926,0.965332
336688925939,0.129883,-0.245605,0.974121
336688948409,0.119629,-0.225098,0.975098
336688971612,0.120605,-0.224121,0.979004
336688985914,0.138184,-0.225586,0.981934
336689008409,0.143066,-0.222168,0.992188
336689031619,0.137695,-0.20459,0.987793
336689045936,0.138672,-0.188965,0.98584
336689068427,0.17334,-0.195312,0.977051
336689091603,0.189453,-0.228516,0.988281
336689105954,0.203613,-0.241211,0.979004
336689128416,0.204102,-0.231934,0.983398
336689151635,0.199219,-0.237305,0.963867
336689165980,0.202637,-0.245117,0.969727
336689188428,0.175781,-0.277344,0.962402
336689211649,0.144531,-0.290039,0.974121
336689225946,0.112305,-0.304199,0.963867
336689248400,0.0947266,-0.318848,0.944824
336689271320,0.0927734,-0.310059,0.936035
336689285966,0.0854492,-0.326172,0.939941
336689308407,0.103516,-0.325195,0.93457
336689331572,0.122559,-0.333984,0.956543
336689345887,0.143555,-0.28418,0.937988
336689368407,0.118164,-0.320801,0.940918
336689391619,0.129883,-0.334961,0.952148
336689405939,0.129395,-0.317871,0.974121
336689428447,0.0888672,-0.308105,0.949219
336689451623,0.0834961,-0.318848,0.952637
336689465962,0.0917969,-0.333984,0.965332
336689488456,0.0981445,-0.319824,0.962402
336689511652,0.0947266,-0.308105,0.960449
336689525967,0.0908203,-0.336914,0.93457
336689548476,0.104004,-0.328613,0.936523
336689571619,0.123535,-0.328125,0.938477
336689585975,0.142578,-0.324707,0.943848
336689608332,0.138184,-0.313965,0.958008
336689631623,0.104004,-0.32666,0.943848
336689645951,0.104492,-0.335449,0.941895
336689668474,0.134766,-0.312012,0.949219
336689691625,0.0966797,-0.351074,0.939453
336689705908,0.0673828,-0.359863,0.924316
336689728457,0.0825195,-0.327148,0.929688
336689751616,0.0864258,-0.320312,0.948242
336689765904,0.105957,-0.325684,0.952148
336689788381,0.0917969,-0.341309,0.949707
336689811627,0.0922852,-0.35498,0.93457
336689825951,0.0888672,-0.349121,0.94873
336689848492,0.102051,-0.337891,0.944336
336689871599,0.11084,-0.335449,0.955566
336689885955,0.0854492,-0.353516,0.941895
336689908414,0.0927734,-0.314453,0.9375
336689931709,0.0898438,-0.3125,0.941895
336689945992,0.110352,-0.315918,0.941895
336689968503,0.150879,-0.316406,0.939453
336689991560,0.119141,-0.352051,0.929199
336690005910,0.104492,-0.333496,0.933105
336690028456,0.101074,-0.312012,0.931152
336690051024,0.116699,-0.337402,0.941406
336690065984,0.103516,-0.352539,0.958984
336690088405,0.0942383,-0.346191,0.952148
336690104822,0.0820312,-0.325684,0.946289
336690125982,0.0834961,-0.32373,0.937012
336690148466,0.0961914,-0.336914,0.952637
336690164928,0.111328,-0.344238,0.950195
336690185910,0.115234,-0.333496,0.955078
336690208488,0.0932617,-0.327148,0.942871
336690224917,0.0996094,-0.312012,0.921875
336690245949,0.119629,-0.320801,0.930664
336690268543,0.117676,-0.348633,0.949707
336690284908,0.103516,-0.332031,0.940918
336690305980,0.09375,-0.328613,0.941895
336690328416,0.104492,-0.333496,0.945801
336690350997,0.10498,-0.340332,0.939453
336690365952,0.110352,-0.342285,0.946777
336690388464,0.114258,-0.317871,0.91748
336690404948,0.11377,-0.331055,0.950684
336690425993,0.111328,-0.320312,0.939941
336690448539,0.10791,-0.330566,0.947754
336690470933,0.101074,-0.339844,0.942383
336690485957,0.0996094,-0.333008,0.945801
336690508426,0.103516,-0.329102,0.938965
336690524843,0.102051,-0.331055,0.936523
336690546059,0.104492,-0.337402,0.932617
336690568484,0.102539,-0.331055,0.942871
336690584966,0.0961914,-0.328613,0.941406
336690606169,0.102539,-0.328613,0.941895
336690628426,0.110352,-0.336426,0.948242
336690644930,0.111816,-0.332031,0.946289
336690665907,0.109375,-0.330566,0.943848
336690688539,0.0991211,-0.331543,0.940918
336690704903,0.101562,-0.332031,0.935059
336690726087,0.102539,-0.341309,0.945801
336690748520,0.105957,-0.325195,0.9375
336690764887,0.0981445,-0.32959,0.937012
336690786028,0.108887,-0.333008,0.949707
336690808501,0.102051,-0.336914,0.946777
336690824898,0.100586,-0.333984,0.9375
336690847398,0.0981445,-0.32373,0.936523
336690868426,0.0908203,-0.333496,0.939941
336690884942,0.104004,-0.33252,0.947754
336690907425,0.101562,-0.334961,0.938965
336690929993,0.109375,-0.330566,0.952637
336690944869,0.110352,-0.314941,0.955566
336690967402,0.102539,-0.314453,0.921875
336690988468,0.114746,-0.34375,0.942871
336691004955,0.116211,-0.327148,0.949707
336691027510,0.102051,-0.3125,0.938477
336691048420,0.117188,-0.306641,0.958496
336691064876,0.100098,-0.303711,0.952148
336691087354,0.0966797,-0.314453,0.927246
336691108520,0.123535,-0.347168,0.922852
336691124906,0.130859,-0.316895,0.941895
336691147399,0.127441,-0.32666,0.953613
336691168481,0.116699,-0.318848,0.957031
336691184901,0.11377,-0.332031,0.95166
336691207358,0.0981445,-0.326172,0.940918
336691228576,0.103516,-0.325195,0.929688
336691244908,0.11084,-0.353516,0.934082
336691267459,0.106934,-0.335938,0.935059
336691288481,0.104004,-0.337402,0.938965
336691304912,0.100098,-0.323242,0.938965
336691327476,0.11377,-0.31543,0.944336
336691348573,0.125488,-0.321777,0.958496
336691364957,0.109863,-0.32959,0.928711
336691387436,0.125,-0.328613,0.9375
336691408512,0.123047,-0.310547,0.942383
336691424990,0.108398,-0.328613,0.9375
336691447437,0.115234,-0.337891,0.930664
336691468461,0.125488,-0.327637,0.935547
336691484907,0.116699,-0.337891,0.941406
336691507431,0.120605,-0.319824,0.949219
336691528548,0.109375,-0.336914,0.95166
336691544913,0.0996094,-0.32959,0.92334
336691567435,0.11377,-0.342285,0.943848
336691588513,0.121094,-0.336426,0.948242
336691604920,0.12207,-0.329102,0.94043
336691627488,0.119141,-0.332031,0.953613
336691648401,0.0961914,-0.340332,0.924805
336691664928,0.112305,-0.349121,0.929199
336691687485,0.109863,-0.324219,0.938477
336691708501,0.111328,-0.332031,0.94043
336691724937,0.109863,-0.344238,0.953125
336691747612,0.108398,-0.34082,0.951172
336691769965,0.105957,-0.337891,0.934082
336691786429,0.111328,-0.326172,0.939453
336691807459,0.111816,-0.334473,0.944824
336691829908,0.111328,-0.327148,0.939941
336691844959,0.113281,-0.340332,0.943848
336691867488,0.108398,-0.333984,0.941895
336691889938,0.108398,-0.333008,0.943359
336691904129,0.116211,-0.331543,0.947266
336691926715,0.117188,-0.337891,0.92627
336691949176,0.111816,-0.345215,0.928711
336691965580,0.116699,-0.327637,0.93457
336691986711,0.114258,-0.338867,0.947754
336692009231,0.113281,-0.321777,0.945801
336692025655,0.116211,-0.330078,0.938477
336692046718,0.125488,-0.34375,0.937988
336692069190,0.111816,-0.339355,0.940918
336692085610,0.103516,-0.337891,0.942871
336692106686,0.0991211,-0.325684,0.945801
336692129198,0.106934,-0.343262,0.935059
336692145616,0.115723,-0.330566,0.937012
336692166737,0.112793,-0.336914,0.936035
336692189189,0.115723,-0.328125,0.935547
336692205644,0.111328,-0.337891,0.947266
336692226739,0.109375,-0.337891,0.936523
336692249244,0.114746,-0.334473,0.934082
336692265614,0.115234,-0.341797,0.941895
336692286393,0.118652,-0.328125,0.945312
336692309275,0.109863,-0.336426,0.952637
336692325638,0.111328,-0.334473,0.937988
336692346710,0.105957,-0.324219,0.935547
336692369203,0.11084,-0.338867,0.946289
336692385638,0.109375,-0.331055,0.945312
336692406769,0.111816,-0.34082,0.940918
336692429224,0.11084,-0.336426,0.938965
336692445660,0.115234,-0.32666,0.941406
336692466630,0.123535,-0.327637,0.929688
336692489166,0.126465,-0.327637,0.9375
336692505631,0.113281,-0.339355,0.937012
336692526657,0.102539,-0.347656,0.928223
336692549244,0.106445,-0.335938,0.930664
336692565648,0.118652,-0.328613,0.943359
336692586751,0.111816,-0.327148,0.946777
336692610632,0.109863,-0.328613,0.947266
336692625676,0.105469,-0.332031,0.933594
336692646736,0.109375,-0.336426,0.943359
336692669194,0.121094,-0.327637,0.946289
336692685656,0.116211,-0.333496,0.941895
336692706713,0.100098,-0.335938,0.939453
336692729204,0.102051,-0.333496,0.941895
336692744907,0.114746,-0.328613,0.935547
336692766700,0.116699,-0.330078,0.929688
336692789264,0.119141,-0.336914,0.941406
336692805045,0.109863,-0.331055,0.931641
336692826709,0.112305,-0.330566,0.952637
336692849267,0.114258,-0.333984,0.947754
336692865006,0.102539,-0.336914,0.951172
336692886762,0.109863,-0.331543,0.94043
336692909257,0.10791,-0.334473,0.936035
336692924998,0.118164,-0.337402,0.94043
336692948192,0.117676,-0.332031,0.943848
336692969246,0.111328,-0.336914,0.943359
336692984956,0.110352,-0.331543,0.94043
336693008127,0.109863,-0.336426,0.942871
336693029276,0.11084,-0.333496,0.939941
336693045001,0.118652,-0.331543,0.9375
336693068145,0.116699,-0.336914,0.936523
336693089270,0.111816,-0.327637,0.935059
336693104930,0.113281,-0.325684,0.932617
336693128106,0.117676,-0.333008,0.958984
336693149380,0.114746,-0.337891,0.951172
336693164992,0.107422,-0.329102,0.947754
336693188149,0.104004,-0.337891,0.932129
336693209192,0.109863,-0.339355,0.944336
336693224955,0.112793,-0.332031,0.94873
336693248108,0.112793,-0.328613,0.943359
336693269222,0.108398,-0.325684,0.940918
336693285168,0.111816,-0.33252,0.940918
336693308145,0.118164,-0.328125,0.941895
336693329211,0.109375,-0.32959,0.939941
336693345015,0.109863,-0.32959,0.937012
336693368223,0.114746,-0.324707,0.93457
336693389240,0.115723,-0.332031,0.943848
336693405116,0.114746,-0.330078,0.941406
336693428159,0.109863,-0.335938,0.943359
336693449269,0.117188,-0.32666,0.946777
336693465035,0.106934,-0.330566,0.937012
336693488183,0.103516,-0.33252,0.950195
336693509251,0.102051,-0.338379,0.930176
336693525006,0.111816,-0.330566,0.942871
336693548209,0.11377,-0.32666,0.944824
336693569286,0.105469,-0.336914,0.942383
336693585029,0.103516,-0.324707,0.939941
336693608131,0.108887,-0.331055,0.936035
336693629214,0.105957,-0.337402,0.935547
336693644959,0.112305,-0.333496,0.945312
336693667539,0.108887,-0.333984,0.952637
336693689263,0.106445,-0.327637,0.948242
336693705054,0.106445,-0.338379,0.940918
336693727573,0.117676,-0.339844,0.943359
336693749248,0.109375,-0.340332,0.943359
336693765072,0.105469,-0.331543,0.941895
336693787573,0.110352,-0.334473,0.936035
336693809288,0.114746,-0.32666,0.931641
336693825052,0.115234,-0.328613,0.952148
336693847577,0.108398,-0.336914,0.949707
336693870703,0.104004,-0.331543,0.930176
336693885019,0.0996094,-0.341797,0.942383
336693907556,0.110352,-0.331543,0.941895
336693930672,0.11084,-0.32959,0.936523
336693945108,0.111816,-0.334961,0.941406
336693967552,0.114258,-0.326172,0.9375
336693990707,0.107422,-0.347656,0.954102
336694005033,0.11084,-0.326172,0.941406
336694027552,0.105957,-0.32373,0.945801
336694050714,0.109863,-0.334473,0.933594
336694065023,0.114746,-0.330566,0.927246
336694087513,0.124512,-0.32666,0.95166
336694110639,0.110352,-0.34082,0.951172
336694125001,0.101074,-0.333984,0.949707
336694148015,0.106934,-0.329102,0.942383
336694170699,0.102539,-0.336426,0.937012
336694184996,0.104492,-0.345215,0.916504
336694207543,0.10791,-0.335938,0.938477
336694230686,0.111328,-0.334473,0.938965
336694245038,0.112305,-0.320312,0.945801
336694267534,0.119141,-0.318359,0.949707
336694290742,0.115723,-0.338379,0.950684
336694305000,0.108398,-0.334961,0.943848
336694327508,0.107422,-0.337402,0.937012
336694350654,0.109375,-0.339844,0.936035
336694371775,0.102539,-0.344727,0.937012
336694390248,0.11084,-0.328613,0.939453
336694410691,0.10498,-0.344238,0.926758
336694431860,0.123047,-0.327148,0.939941
336694447506,0.118652,-0.339844,0.952637
336694470678,0.110352,-0.332031,0.947754
336694491724,0.109375,-0.330078,0.951172
336694507533,0.106934,-0.335449,0.929688
336694530680,0.114258,-0.339844,0.946289
336694551942,0.106934,-0.336426,0.931152
336694567908,0.118652,-0.332031,0.942383
336694590671,0.11084,-0.338867,0.935547
336694611752,0.121094,-0.332031,0.941895
336694627500,0.109863,-0.336426,0.94043
336694650041,0.113281,-0.339355,0.942383
336694671732,0.113281,-0.334473,0.94043
336694687599,0.111328,-0.335938,0.946289
336694710050,0.117188,-0.333496,0.936035
336694731756,0.118164,-0.335938,0.94043
336694747590,0.114746,-0.330078,0.938477
336694770023,0.11377,-0.331055,0.936523
336694793247,0.110352,-0.344727,0.938965
336694807576,0.111816,-0.32959,0.937012
336694830038,0.113281,-0.333984,0.939453
336694853148,0.116211,-0.337402,0.946777
336694867649,0.113281,-0.32959,0.942383
336694891138,0.120605,-0.32373,0.9375
336694913279,0.116699,-0.332031,0.939941
336694927546,0.112305,-0.337402,0.943848
336694950025,0.114746,-0.33252,0.939453
336694973185,0.111328,-0.337891,0.948242
336694987548,0.118164,-0.331055,0.932129
336695010110,0.120117,-0.333984,0.941406
336695023616,0.116211,-0.331055,0.937012
336695046862,0.114746,-0.334961,0.944824
336695061111,0.109375,-0.328613,0.941895
336695083560,0.117188,-0.335449,0.937012
336695106740,0.117676,-0.337891,0.939453
336695121129,0.10791,-0.326172,0.937988
336695143630,0.114746,-0.332031,0.943848
336695166779,0.11084,-0.328613,0.936523
336695181066,0.115234,-0.332031,0.942871
336695203602,0.113281,-0.333008,0.94043
336695226816,0.113281,-0.33252,0.943359
336695241116,0.106445,-0.335938,0.944824
336695263666,0.112305,-0.330078,0.94043
336695286825,0.115723,-0.335449,0.946777
336695301136,0.114258,-0.333984,0.94043
336695323623,0.116699,-0.333008,0.946289
336695346803,0.11084,-0.333496,0.94043
336695361129,0.110352,-0.331543,0.936523
336695383617,0.112793,-0.336426,0.94043
336695406831,0.111816,-0.330566,0.94873
336695421078,0.109863,-0.337402,0.947266
336695443642,0.109863,-0.337402,0.9375
336695466784,0.114258,-0.332031,0.940918
336695481131,0.116699,-0.34082,0.947266
336695503660,0.118652,-0.330078,0.943359
336695526860,0.109375,-0.344727,0.938965
336695541169,0.111328,-0.337891,0.939941
336695563658,0.114258,-0.337402,0.937012
336695587054,0.11377,-0.335938,0.93457
336695609325,0.114258,-0.334961,0.935547
336695623604,0.112305,-0.330566,0.933105
336695648757,0.114258,-0.335449,0.944336
336695661133,0.113281,-0.338379,0.944336
336695684408,0.12207,-0.330078,0.938965
336695714502,0.109863,-0.335449,0.935547
336695722820,0.11084,-0.337891,0.942871
336695746586,0.107422,-0.341309,0.94873
336695767846,0.105469,-0.334473,0.936523
336695788972,0.116211,-0.327148,0.942871
336695807232,0.117676,-0.34375,0.939453
336695826726,0.12207,-0.333496,0.934082
336695844340,0.115723,-0.33252,0.930176
336695863637,0.115234,-0.331543,0.936035
336695887527,0.115723,-0.336426,0.94043
336695905579,0.112305,-0.336426,0.941895
336695927521,0.111328,-0.333496,0.937012
336695947398,0.106934,-0.340332,0.942871
336695961268,0.111328,-0.326172,0.943848
336695985271,0.11377,-0.336914,0.94873
336696006151,0.111328,-0.337891,0.932617
336696021156,0.111328,-0.342773,0.939941
336696043679,0.116211,-0.343262,0.933594
336696066179,0.109375,-0.336914,0.933105
336696081127,0.115723,-0.345215,0.94043
336696103649,0.111328,-0.328125,0.941406
336696126163,0.11084,-0.344727,0.938477
336696141184,0.11084,-0.334961,0.933105
336696163697,0.111816,-0.337402,0.940918
336696186122,0.108887,-0.338867,0.935547
336696201160,0.108398,-0.339844,0.937012
336696223653,0.11084,-0.337891,0.943359
336696246178,0.115234,-0.334961,0.943848
336696261187,0.109375,-0.337891,0.94043
336696283978,0.114746,-0.332031,0.941406
336696306158,0.114258,-0.336426,0.937012
336696321164,0.111816,-0.338867,0.935059
336696343714,0.111328,-0.333984,0.939941
336696366179,0.114258,-0.34082,0.939453
336696381189,0.114258,-0.331055,0.941895
336696404808,0.11377,-0.34375,0.938477
336696426200,0.114258,-0.333984,0.942383
336696441159,0.110352,-0.333496,0.938965
336696463693,0.109863,-0.331543,0.940918
336696486309,0.115234,-0.335449,0.937012
336696502641,0.113281,-0.34375,0.93457
336696523677,0.114746,-0.33252,0.941406
336696546166,0.116211,-0.333984,0.941406
336696562620,0.11084,-0.333496,0.947754
336696583669,0.108887,-0.337402,0.94043
336696606211,0.111328,-0.340332,0.946289
336696622861,0.109863,-0.336426,0.94043
336696644687,0.119141,-0.337891,0.941406
336696666179,0.11377,-0.331055,0.942383
336696682617,0.117676,-0.330078,0.94043
336696703669,0.114258,-0.341309,0.938965
336696726315,0.112793,-0.334961,0.936035
336696744650,0.116699,-0.335938,0.938965
336696763894,0.109863,-0.331543,0.938477
336696786212,0.108887,-0.338379,0.942383
336696802647,0.110352,-0.33252,0.939453
336696823708,0.11084,-0.341797,0.944824
336696846329,0.114746,-0.325195,0.941895
336696868644,0.114746,-0.335449,0.94043
336696883681,0.110352,-0.333496,0.936523
336696906164,0.108398,-0.336426,0.944336
336696922644,0.106934,-0.342773,0.934082
336696943703,0.109863,-0.331543,0.936523
336696966242,0.117676,-0.334961,0.940918
336696982625,0.110352,-0.330078,0.944336
336697011899,0.11084,-0.344238,0.936035
336697026242,0.113281,-0.336914,0.9375
336697042632,0.114746,-0.338867,0.943848
336697063726,0.110352,-0.338867,0.940918
336697086205,0.11084,-0.328125,0.942871
336697102656,0.112305,-0.343262,0.940918
336697123686,0.114746,-0.335449,0.945801
336697146263,0.111816,-0.337402,0.944336
336697162613,0.111816,-0.334473,0.938965
336697183700,0.111328,-0.331055,0.940918
336697206151,0.112305,-0.338379,0.941406
336697222659,0.108398,-0.331543,0.937988
336697243666,0.107422,-0.336914,0.933105
336697266241,0.109375,-0.333984,0.932617
336697282629,0.108398,-0.337891,0.936035
336697303681,0.111328,-0.334961,0.939453
336697326326,0.108887,-0.339355,0.943848
336697342666,0.108887,-0.339355,0.944824
336697363690,0.109375,-0.332031,0.940918
336697386281,0.111816,-0.336914,0.940918
336697402657,0.114258,-0.334961,0.946289
336697423699,0.115234,-0.335449,0.941406
336697446231,0.117676,-0.341797,0.941895
336697462623,0.107422,-0.332031,0.945312
336697485114,0.11084,-0.337402,0.937988
336697506193,0.11377,-0.334961,0.946777
336697522635,0.112305,-0.338867,0.929199
336697545150,0.114746,-0.338867,0.938477
336697566196,0.114258,-0.334961,0.94043
336697582657,0.115234,-0.33252,0.943359
336697605224,0.109375,-0.336914,0.938965
336697626249,0.109375,-0.334961,0.937012
336697642663,0.112793,-0.332031,0.938965
336697665148,0.111816,-0.341797,0.936035
336697686218,0.112305,-0.330566,0.937012
336697702683,0.111816,-0.339844,0.939941
336697725204,0.114746,-0.334961,0.94043
336697746152,0.112793,-0.333984,0.930176
336697762701,0.12207,-0.336914,0.947266
336697785127,0.116699,-0.329102,0.946289
336697806210,0.111328,-0.341797,0.950195
336697822649,0.113281,-0.333008,0.93457
336697845125,0.113281,-0.341797,0.937012
336697869130,0.119629,-0.335938,0.937012
336697882680,0.112305,-0.32666,0.949219
336697905181,0.112793,-0.335449,0.937012
336697926239,0.117676,-0.333984,0.943359
336697942686,0.119141,-0.342773,0.946777
336697965190,0.111816,-0.327637,0.932617
336697986232,0.112305,-0.334961,0.939941
336698002706,0.11084,-0.333984,0.941406
336698025156,0.113281,-0.335938,0.9375
336698046219,0.116699,-0.342285,0.941406
336698062661,0.118652,-0.333496,0.932129
336698085192,0.11377,-0.333984,0.942871
336698106233,0.111328,-0.331543,0.936035
336698121906,0.115234,-0.342285,0.9375
336698144366,0.114258,-0.337402,0.937988
336698166896,0.117188,-0.333008,0.93457
336698181886,0.116211,-0.336914,0.937012
336698204365,0.115723,-0.333496,0.932617
336698226935,0.116211,-0.340332,0.949219
336698241898,0.112305,-0.335449,0.930664
336698271686,0.116211,-0.34375,0.943359
336698287388,0.120117,-0.332031,0.938965
336698302335,0.115723,-0.328613,0.9375
336698324413,0.114746,-0.337402,0.945312
336698346895,0.108887,-0.335938,0.9375
336698361946,0.11377,-0.343262,0.9375
336698384392,0.113281,-0.337402,0.937988
336698406939,0.119141,-0.341309,0.9375
336698421876,0.119141,-0.342285,0.942383
336698444479,0.117676,-0.332031,0.936523
336698466948,0.118164,-0.340332,0.943359
336698481893,0.118164,-0.333496,0.937988
336698504431,0.112305,-0.333984,0.937988
336698527272,0.111816,-0.333008,0.936035
336698541947,0.112305,-0.34375,0.937012
336698564475,0.115723,-0.333984,0.944824
336698586924,0.11084,-0.33252,0.935059
336698603351,0.115723,-0.333984,0.939941
336698624398,0.115723,-0.334473,0.943359
336698646891,0.111816,-0.338867,0.936523
336698663304,0.114746,-0.334473,0.934082
336698684430,0.111328,-0.341309,0.941895
336698706917,0.117188,-0.333496,0.936035
336698723386,0.114258,-0.338867,0.94043
336698744439,0.113281,-0.334961,0.943359
336698760284,0.111816,-0.331055,0.939453
336698783405,0.114746,-0.336426,0.942383
336698804464,0.114258,-0.337891,0.9375
336698820213,0.112793,-0.340332,0.935547
336698843363,0.114258,-0.336914,0.9375
336698865844,0.114746,-0.336426,0.941895
336698880492,0.118164,-0.334473,0.937012
336698903390,0.111816,-0.33252,0.936035
336698924459,0.111816,-0.343262,0.938965
336698940195,0.111816,-0.335938,0.941406
336698963413,0.114258,-0.340332,0.9375
336698984437,0.116211,-0.335938,0.939941
336699000181,0.11377,-0.334473,0.937012
336699023400,0.115723,-0.334473,0.938477
336699044470,0.111816,-0.334473,0.938477
336699060218,0.118164,-0.337402,0.940918
336699083363,0.114258,-0.335449,0.936523
336699104439,0.114746,-0.34375,0.931152
336699120185,0.123047,-0.33252,0.936523
336699143328,0.114746,-0.339844,0.938965
336699164472,0.116211,-0.340332,0.939941
336699180227,0.112305,-0.331055,0.938965
336699203399,0.108887,-0.333496,0.941895
336699224516,0.114258,-0.334961,0.937988
336699240207,0.111328,-0.338867,0.931641
336699263414,0.116699,-0.335449,0.939941
336699284451,0.115723,-0.335938,0.936523
336699300265,0.119629,-0.333496,0.939941
336699323420,0.115234,-0.331055,0.94873
336699344520,0.111816,-0.336914,0.941406
336699360213,0.112305,-0.337402,0.933105
336699382706,0.109375,-0.341797,0.933594
336699404455,0.116699,-0.331055,0.938965
336699420205,0.108398,-0.333984,0.939453
336699442691,0.115234,-0.334473,0.941895
336699464411,0.116699,-0.338867,0.942383
336699480212,0.117188,-0.337402,0.937988
336699502764,0.111328,-0.33252,0.943359
336699526351,0.110352,-0.345215,0.942871
336699540255,0.108887,-0.337891,0.937988
336699562733,0.117676,-0.336914,0.939453
336699586097,0.116699,-0.333984,0.931152
336699600300,0.117676,-0.334961,0.941406
336699622714,0.113281,-0.34082,0.928711
336699645935,0.111328,-0.341309,0.943359
336699660457,0.11084,-0.341797,0.941406
336699682874,0.117188,-0.337891,0.935547
336699705917,0.116699,-0.34082,0.943359
336699720225,0.114746,-0.333496,0.938477
336699743621,0.113281,-0.330078,0.942383
336699772463,0.11377,-0.340332,0.943359
336699780284,0.119141,-0.333984,0.935547
336699802771,0.115723,-0.342773,0.940918
336699825943,0.114746,-0.335449,0.943848
336699840322,0.109863,-0.336914,0.938477
336699862751,0.116699,-0.333496,0.937012
336699885886,0.118652,-0.334961,0.934082
336699900309,0.111328,-0.338867,0.938477
336699922806,0.111816,-0.330566,0.935547
336699945969,0.114746,-0.34082,0.944824
336699960273,0.111328,-0.334961,0.944336
336699982800,0.116699,-0.337891,0.936035
336700005871,0.117676,-0.333008,0.943848
336700020302,0.11084,-0.333008,0.938477
336700042848,0.115234,-0.341309,0.940918
336700066019,0.115234,-0.333984,0.944824
336700087034,0.117188,-0.334961,0.948242
336700102783,0.113281,-0.322754,0.958496
336700125916,0.11377,-0.30127,0.974609
336700147014,0.151367,-0.317383,1.00586
336700162853,0.141113,-0.336426,0.989746
336700185960,0.163086,-0.332031,1.00586
336700207025,0.13916,-0.335938,0.986816
336700222812,0.127441,-0.316895,0.980957
336700245978,0.134277,-0.318359,0.971191
336700267025,0.152344,-0.308594,1.00977
336700282776,0.166992,-0.300293,0.955078
336700305261,0.108887,-0.27832,0.978516
336700326947,0.104004,-0.254883,0.959961
336700342833,0.0898438,-0.241211,0.927734
336700365261,0.0766602,-0.249023,0.898438
336700387089,0.0859375,-0.269043,0.867676
336700402836,0.0864258,-0.26709,0.85498
336700425257,0.118652,-0.245117,0.837402
336700447061,0.141602,-0.263184,0.85498
336700462806,0.129395,-0.260742,0.863281
336700485316,0.115723,-0.255371,0.875
336700508463,0.131836,-0.302734,0.923828
336700530928,0.131348,-0.337891,0.92627
336700545292,0.125488,-0.34082,0.9375
336700568501,0.134277,-0.313477,0.938477
336700582758,0.147461,-0.344238,0.94043
336700605250,0.187988,-0.361816,0.941406
336700628405,0.200684,-0.373535,0.933105
336700649593,0.20166,-0.385254,0.930176
336700665280,0.214355,-0.358887,0.925781
336700688499,0.219727,-0.362793,0.918945
336700709564,0.249023,-0.374512,0.95166
336700725253,0.258789,-0.384277,0.9375
336700748471,0.254883,-0.36084,0.943848
336700769553,0.238281,-0.356445,0.988281
336700785284,0.259277,-0.397949,0.962891
336700808499,0.255371,-0.462402,1.09863
336700829552,0.193359,-0.450684,1.02344
336700845313,0.181641,-0.351074,0.978027
336700868403,0.20459,-0.31543,0.996582
336700889463,0.205566,-0.342773,1.00879
336700905299,0.198242,-0.372559,1.01221
336700928548,0.174316,-0.347168,1.03027
336700949555,0.146973,-0.337891,1.04736
336700965283,0.133789,-0.335449,1.06934
336700988584,0.143066,-0.334473,1.09277
336701010957,0.114258,-0.368652,1.07861
336701025295,0.0678711,-0.409668,1.05957
336701048499,0.0429688,-0.451172,1.04785
336701069558,-0.0126953,-0.477051,1.02295
336701085261,-0.065918,-0.438477,1.00781
336701108508,-0.0966797,-0.408203,0.973633
336701129548,-0.112793,-0.431152,0.941895
336701145317,-0.157227,-0.45166,0.937988
336701168518,-0.228516,-0.422363,0.925293
336701196993,-0.270508,-0.351562,0.887695
336701205290,-0.325195,-0.311035,0.834961
336701228517,-0.375977,-0.30127,0.833496
336701241508,-0.417969,-0.310059,0.788574
336701264550,-0.42334,-0.286133,0.756348
336701278918,-0.444336,-0.251953,0.72998
336701310206,-0.462891,-0.22998,0.760742
336701324577,-0.445312,-0.25293,0.744141
336701339026,-0.484863,-0.237793,0.716309
336701361400,-0.520996,-0.175781,0.712891
336701384656,-0.512207,-0.163086,0.736816
336701398854,-0.526367,-0.181152,0.733887
336701421356,-0.556641,-0.157227,0.740723
336701444563,-0.535156,-0.11377,0.73584
336701458868,-0.523438,-0.10498,0.725586
336701481381,-0.554199,-0.0957031,0.741699
336701504560,-0.516113,-0.0756836,0.751465
336701518962,-0.480957,-0.0571289,0.737793
336701541447,-0.489258,-0.0576172,0.771484
336701564562,-0.48291,-0.0541992,0.74707
336701578912,-0.44043,-0.0234375,0.779785
336701601400,-0.374512,-0.0151367,0.836914
336701624641,-0.356445,-0.0151367,0.821777
336701648517,-0.342773,0.00683594,0.827148
336701661393,-0.356445,-0.0224609,0.811523
336701684545,-0.282227,-0.0229492,0.853516
336701698870,-0.227539,-0.0537109,0.896484
336701721451,-0.205078,-0.0610352,0.885742
336701744575,-0.195312,-0.065918,0.888672
336701758920,-0.144043,-0.0522461,0.911621
336701781397,-0.0942383,-0.03125,0.933594
336701804540,-0.0839844,-0.059082,0.930176
336701818906,-0.0449219,-0.0800781,0.957031
336701841367,-0.0107422,-0.0605469,0.961426
336701864596,0.0571289,-0.0556641,1.02832
336701878896,0.0839844,-0.0668945,1.06445
336701901416,0.115723,-0.0356445,1.0415
336701924567,0.151367,-0.027832,1.06201
336701938854,0.194824,-0.101074,1.07812
336701961387,0.255371,-0.125488,1.09912
336701984567,0.290039,-0.043457,1.11279
336701998917,0.307129,-0.0117188,1.1167
336702021425,0.291992,-0.11084,1.12061
336702044532,0.268066,-0.161621,1.1123
336702058907,0.231934,-0.156738,1.08984
336702081437,0.199707,-0.178711,1.05029
336702104604,0.194824,-0.209961,1.02539
336702118941,0.162598,-0.217285,1.02295
336702141379,0.131836,-0.241211,1.02002
336702164630,0.111816,-0.291504,0.994141
336702178892,0.0717773,-0.274414,0.975586
336702201481,0.0620117,-0.276855,0.978516
336702224574,0.0571289,-0.296387,0.977539
336702238980,0.0605469,-0.265137,0.972656
336702261476,0.0722656,-0.293945,0.969238
336702284688,0.0776367,-0.318359,0.974609
336702298964,0.081543,-0.311523,0.967773
336702321451,0.10498,-0.259766,0.961914
336702344626,0.120117,-0.26416,0.966309
336702358982,0.12793,-0.281738,0.970215
336702381477,0.140625,-0.254395,0.955566
336702403887,0.149902,-0.244141,0.953125
336702418954,0.17041,-0.237305,0.953125
336702441464,0.189453,-0.247559,0.958496
336702463881,0.208008,-0.267578,0.969238
336702478940,0.210938,-0.266113,0.980957
336702501410,0.17334,-0.273926,0.956543
336702523911,0.172363,-0.27002,0.974121
336702538967,0.171387,-0.25293,0.938965
336702561444,0.175781,-0.281738,0.960938
336702583987,0.165527,-0.27832,0.940918
336702599005,0.186523,-0.285645,0.95166
336702621505,0.174805,-0.291016,0.948242
336702643917,0.166504,-0.298828,0.958984
336702658919,0.147949,-0.301758,0.958496
336702681483,0.134277,-0.293945,0.961426
336702704008,0.130859,-0.288574,0.958008
336702719010,0.131348,-0.288086,0.936035
336702741520,0.135254,-0.29541,0.938965
336702763989,0.143555,-0.297852,0.937012
336702779011,0.150879,-0.305176,0.931641
336702801523,0.166504,-0.291016,0.944336
336702823980,0.164062,-0.310059,0.936035
336702838930,0.161621,-0.330078,0.945312
336702861693,0.125,-0.323242,0.928711
336702883927,0.137695,-0.289062,0.931641
336702899021,0.148438,-0.308105,0.963379
336702921484,0.13623,-0.322266,0.957031
336702943976,0.129883,-0.328613,0.962891
336702958937,0.11377,-0.32666,0.956055
336702981519,0.129395,-0.312988,0.941406
336702997947,0.136719,-0.323242,0.942871
336703018924,0.14502,-0.316895,0.942871
336703041460,0.137207,-0.328125,0.946289
336703057988,0.139648,-0.343262,0.9375
336703079108,0.144043,-0.328613,0.950195
336703101551,0.140137,-0.312988,0.963379
336703117936,0.129395,-0.276367,0.952148
336703140440,0.142578,-0.283203,0.942383
336703161543,0.155273,-0.305664,0.930176
336703177886,0.151855,-0.316406,0.932129
336703200437,0.157715,-0.310059,0.937012
336703221547,0.187988,-0.26709,0.924316
336703237859,0.223633,-0.283203,0.96582
336703260371,0.170898,-0.352051,0.955566
336703281594,0.127441,-0.351074,0.939453
336703297979,0.12207,-0.314453,0.911133
336703320418,0.145508,-0.29834,0.92041
336703341505,0.142578,-0.333984,0.970703
336703364043,0.120117,-0.314941,0.944824
336703380482,0.116211,-0.310547,0.939941
336703401511,0.119629,-0.36377,0.947754
336703417876,0.110352,-0.370605,0.936035
336703440454,0.123047,-0.370117,0.9375
336703461483,0.122559,-0.356934,0.939941
336703477877,0.127441,-0.349121,0.972656
336703500374,0.105957,-0.249023,0.95166
336703521525,0.137695,-0.254883,0.927246
336703537931,0.182617,-0.317871,0.961914
336703560432,0.185547,-0.30957,0.925781
336703581701,0.196777,-0.275391,0.938477
336703597932,0.170898,-0.269531,0.904785
336703620367,0.22998,-0.3125,0.969727
336703641466,0.159668,-0.376465,0.949707
336703657872,0.0878906,-0.355469,0.901855
336703680476,0.13623,-0.3125,0.907715
336703701728,0.144043,-0.349121,0.962891
336703718013,0.123535,-0.320801,0.960938
336703740415,0.111816,-0.328125,0.959961
336703761531,0.0947266,-0.348145,0.939941
336703777909,0.102051,-0.335938,0.92334
336703806634,0.128906,-0.354004,0.939453
336703821645,0.145996,-0.368164,0.954102
336703844041,0.131348,-0.338867,0.940918
336703860390,0.126953,-0.283691,0.9375
336703881646,0.151855,-0.298828,0.94043
336703897939,0.165039,-0.311523,0.951172
336703920491,0.158203,-0.285645,0.913086
336703941648,0.18457,-0.288086,0.912109
336703957882,0.193848,-0.28125,0.94043
336703980522,0.229492,-0.342773,0.977051
336704003034,0.138672,-0.384277,0.944336
336704018004,0.0991211,-0.34082,0.899414
336704040521,0.140137,-0.316406,0.935059
336704061642,0.138672,-0.326172,0.959961
336704077932,0.123535,-0.333496,0.952148
336704100422,0.12207,-0.357422,0.945801
336704122948,0.104492,-0.364746,0.926758
336704137955,0.103027,-0.351562,0.912109
336704160462,0.127441,-0.336426,0.936035
336704182908,0.140625,-0.331055,0.946777
336704197932,0.140137,-0.352539,0.956055
336704220410,0.139648,-0.333496,0.948242
336704242978,0.130859,-0.268066,0.932129
336704258027,0.150879,-0.275879,0.91748
336704280403,0.182129,-0.324707,0.924805
336704302968,0.197266,-0.294922,0.936035
336704318655,0.206543,-0.286621,0.929688
336704339691,0.19043,-0.365234,0.967773
336704362274,0.108398,-0.382812,0.92041
336704378574,0.132812,-0.323242,0.907227
336704399750,0.165039,-0.336426,0.94873
336704422184,0.141602,-0.337891,0.966309
336704438616,0.124512,-0.322266,0.949219
336704459714,0.123535,-0.333496,0.947266
336704482241,0.125977,-0.342285,0.920898
336704498611,0.149902,-0.348145,0.929199
336704519655,0.158203,-0.349609,0.933594
336704542204,0.141113,-0.351074,0.941406
336704558656,0.135742,-0.308105,0.932129
336704579666,0.163574,-0.341309,0.973633
336704602219,0.182129,-0.312988,0.958008
336704618666,0.230957,-0.287598,0.986328
336704639763,0.246094,-0.257812,0.975586
336704662214,0.265137,-0.300781,1.0127
336704684801,0.297363,-0.242676,1.02441
336704699675,0.266113,-0.147949,1.04688
336704722260,0.213867,-0.135742,1.06641
336704745245,0.160156,-0.163574,1.02979
336704759681,0.0776367,-0.144043,1.02246
336704782153,0.0751953,-0.150879,1.06201
336704806219,0.12207,-0.195312,1.10352
336704819776,0.0795898,-0.192383,1.10498
336704842266,0.105957,-0.165527,1.0957
336704864660,0.118164,-0.201172,1.10791
336704879738,0.0595703,-0.1875,0.981445
336704902293,0.10791,-0.20166,1.05713
336704924775,0.101074,-0.21582,1.01562
336704939817,0.119141,-0.223145,1.01709
336704962266,0.179199,-0.243652,1.06885
336704984740,0.157227,-0.245605,1.01709
336704999690,0.176758,-0.232422,1.08008
336705022295,0.215332,-0.250488,1.07471
336705044762,0.290527,-0.259277,1.07959
336705061177,0.3125,-0.259766,1.07275
336705082203,0.282227,-0.268066,1.04785
336705104709,0.213867,-0.29248,1.04199
336705119858,0.117676,-0.303223,0.998047
336705142262,-0.00341797,-0.275391,0.958496
336705158035,-0.0600586,-0.248047,0.950684
336705179788,-0.0883789,-0.235352,0.943359
336705202272,-0.126953,-0.220703,0.916504
336705217957,-0.177246,-0.232422,0.916504
336705241178,-0.195312,-0.203125,0.888672
336705262242,-0.22998,-0.193848,0.846191
336705278075,-0.27832,-0.184082,0.836914
336705301125,-0.331543,-0.15625,0.800781
336705322251,-0.401367,-0.149902,0.785645
336705338062,-0.457031,-0.114746,0.76709
336705361097,-0.484375,-0.0722656,0.727539
336705382155,-0.524902,-0.0410156,0.708008
336705397941,-0.498047,0.0239258,0.70459
336705421229,-0.483887,0.0546875,0.707031
336705442257,-0.474609,0.100586,0.705078
336705457964,-0.484863,0.126953,0.713379
336705481165,-0.464844,0.178711,0.726074
336705502279,-0.418945,0.189941,0.692383
336705518027,-0.385254,0.223145,0.755371
336705541206,-0.345703,0.241211,0.779297
336705562300,-0.367188,0.264648,0.819824
336705578072,-0.358398,0.333984,0.848633
336705601179,-0.326172,0.316895,0.84375
336705622299,-0.259766,0.32959,0.907227
336705638089,-0.224121,0.302734,0.94873
336705661242,-0.222168,0.279785,0.884277
336705682277,-0.234375,0.320801,0.867676
336705698075,-0.27002,0.299316,0.869629
336705721128,-0.215332,0.334961,0.919434
336705749817,-0.0288086,0.181152,0.978027
336705758005,-0.0395508,0.015625,0.995117
336705781164,-0.0849609,0.0288086,0.994629
336705802300,-0.0913086,0.0834961,0.94873
336705818100,0.015625,0.0546875,0.982422
336705841252,0.0493164,-0.0800781,1.02979
336705862274,0.0839844,-0.0170898,1.02295
336705878082,0.0791016,0.0556641,0.961914
336705901177,0.181641,0.0449219,1.00293
336705922217,0.287598,-0.0537109,0.983398
336705938060,0.331055,-0.0751953,1.00293
336705961156,0.337891,-0.0727539,1.00928
336705982275,0.332031,-0.0805664,1.02686
336705998028,0.324707,-0.0546875,1.07568
336706020563,0.312988,-0.0200195,1.11914
336706042335,0.291016,0.0263672,1.04199
336706066225,0.282227,0.0415039,1.06055
336706089446,0.268555,0.00878906,1.03857
336706102235,0.297363,-0.0102539,1.05322
336706118040,0.316406,0.0273438,1.06592
336706140547,0.303223,0.0664062,1.02295
336706163690,0.29541,0.0932617,1.05957
336706178051,0.269531,0.108398,1.07129
336706200592,0.277344,0.0864258,1.0957
336706223659,0.280273,0.0668945,1.09473
336706238101,0.26416,0.0292969,1.1084
336706260503,0.269043,0.0297852,1.09229
336706283683,0.236328,0.0356445,1.10791
336706304791,0.203125,0.0551758,1.08105
336706320625,0.193359,0.0253906,1.08105
336706343731,0.148438,-0.00195312,1.06348
336706364819,0.120117,-0.00585938,1.09082
336706380562,0.0424805,0.0424805,1.04883
336706403720,-0.0117188,-0.0244141,1.03516
336706424778,-0.081543,-0.0332031,1.00781
336706440585,-0.129883,-0.0541992,1.03564
336706471206,-0.197266,-0.0439453,1.06445
336706486224,-0.272949,-0.0795898,1.0249
336706500507,-0.323242,-0.129395,0.990723
336706523756,-0.371094,-0.138672,0.966797
336706544790,-0.412598,-0.173828,0.936035
336706560526,-0.440918,-0.230469,0.908691
336706583736,-0.477051,-0.283203,0.867188
336706604763,-0.512207,-0.246094,0.834473
336706620580,-0.503418,-0.239258,0.797363
336706643737,-0.508301,-0.245117,0.764648
336706664845,-0.564941,-0.22998,0.705078
336706680591,-0.583984,-0.218262,0.652344
336706703736,-0.586426,-0.205566,0.626465
336706724805,-0.558105,-0.150879,0.60498
336706740559,-0.550781,-0.124023,0.608398
336706763710,-0.538086,-0.0722656,0.606445
336706784828,-0.529785,-0.0117188,0.603027
336706800621,-0.532715,-0.0166016,0.617188
336706823682,-0.480469,0.0683594,0.607422
336706844868,-0.434082,0.0786133,0.681152
336706860498,-0.42041,0.0541992,0.76123
336706883738,-0.450684,0.0454102,0.696777
336706904804,-0.417969,0.144531,0.725098
336706920618,-0.39502,0.0732422,0.791992
336706943114,-0.355957,-0.00537109,0.8125
336706964850,-0.32959,-0.0292969,0.854492
336706980612,-0.270508,-0.0712891,0.882324
336707003082,-0.266602,-0.121582,0.887207
336707024890,-0.260742,-0.109863,0.944336
336707040577,-0.232422,-0.090332,0.90625
336707063077,-0.164551,-0.128418,0.921387
336707084824,-0.128906,-0.203613,0.963379
336707101094,-0.149414,-0.235352,1.00098
336707123037,-0.196777,-0.191406,1.03271
336707146187,-0.197266,-0.186035,1.02881
336707160515,-0.136719,-0.191895,1.03809
336707183147,-0.0561523,-0.177734,1.06543
336707206203,-0.00732422,-0.144043,1.09814
336707220629,0.0322266,-0.161621,1.104
336707243094,0.0722656,-0.157715,1.11133
336707266276,0.17334,-0.0976562,1.13477
336707287317,0.225586,-0.14209,1.15234
336707303136,0.202148,-0.193848,1.12109
336707326279,0.195312,-0.221191,1.08496
336707347341,0.226562,-0.228027,1.06543
336707363102,0.242188,-0.265137,1.07471
336707386295,0.195801,-0.231445,1.04004
336707407070,0.222168,-0.151855,0.973633
336707423090,0.19043,-0.253906,1.06104
336707436717,0.23291,-0.234863,1.08936
336707459195,0.196777,-0.247559,1.06201
336707474160,0.194336,-0.253418,1.04248
336707496666,0.138672,-0.260254,1.00293
336707519146,0.100586,-0.332031,0.918457
336707542406,0.0986328,-0.431152,0.890137
336707556644,0.143066,-0.431641,0.910645
336707579159,0.137207,-0.379395,0.922852
336707602324,0.109863,-0.336426,0.921387
336707616690,0.141602,-0.375,0.948242
336707639875,0.138672,-0.354492,0.931641
336707654171,0.12793,-0.361328,0.937988
336707676738,0.131836,-0.326172,0.915039
336707699846,0.158203,-0.291992,0.94873
336707714174,0.174316,-0.255371,0.927246
336707736689,0.183105,-0.285645,0.950195
336707759872,0.181641,-0.306152,0.939941
336707774208,0.172852,-0.287109,0.859863
336707796695,0.175293,-0.328125,0.943359
336707819887,0.205566,-0.360352,0.991211
336707834118,0.133301,-0.396484,0.956543
336707856637,0.0800781,-0.375488,0.899902
336707879943,0.0488281,-0.369629,0.875977
336707894171,0.126953,-0.34668,0.947754
336707916725,0.159668,-0.365723,0.959961
336707939812,0.147949,-0.369629,0.946777
336707954428,0.137695,-0.368164,0.956055
336707976723,0.126465,-0.375488,0.935059
336707999806,0.152344,-0.350098,0.922852
336708022531,0.131348,-0.276367,0.928223
336708036761,0.151855,-0.200684,0.887695
336708059204,0.200195,-0.227539,0.881836
336708082435,0.205566,-0.353516,0.922363
336708096797,0.194824,-0.380859,0.99707
336708119229,0.159668,-0.39209,0.949219
336708134147,0.100098,-0.345215,0.912109
336708156640,0.0800781,-0.308594,0.893066
336708179198,0.151855,-0.324707,0.938477
336708194188,0.210449,-0.341797,0.985352
336708216736,0.188477,-0.345215,0.985352
336708239171,0.147461,-0.311035,0.93457
336708254273,0.158691,-0.306641,0.915039
336708276675,0.1875,-0.345703,0.936523
336708299220,0.189941,-0.351074,0.939453
336708314312,0.145508,-0.333496,0.907715
336708336722,0.132812,-0.288574,0.921875
336708359261,0.14209,-0.279297,0.890137
336708374153,0.15918,-0.313965,0.962891
336708396689,0.145996,-0.330566,0.931152
336708419407,0.194336,-0.310547,0.963379
336708434210,0.205566,-0.285645,0.946289
336708456685,0.195312,-0.288086,0.915039
336708479220,0.174316,-0.311523,0.925781
336708494221,0.17041,-0.374512,0.935547
336708516748,0.143555,-0.383301,0.949219
336708539247,0.129395,-0.353516,0.94043
336708554202,0.141113,-0.30127,0.929199
336708576651,0.177734,-0.320312,0.942383
336708599230,0.191406,-0.323242,0.949707
336708614139,0.169922,-0.302246,0.927246
336708636788,0.174805,-0.330566,0.952637
336708659249,0.136719,-0.361816,0.926758
336708674214,0.129883,-0.331055,0.922363
336708696717,0.132324,-0.275391,0.902344
336708719260,0.168945,-0.313477,0.930664
336708734230,0.201172,-0.327148,0.94043
336708756760,0.179199,-0.353516,0.950684
336708779262,0.188965,-0.324707,0.951172
336708795625,0.143555,-0.34082,0.941406
336708816788,0.143066,-0.314453,0.927734
336708839177,0.163574,-0.325195,0.943848
336708855671,0.188965,-0.329102,0.936523
336708876771,0.168945,-0.319824,0.928711
336708899223,0.141602,-0.327148,0.92041
336708915611,0.149414,-0.32666,0.93457
336708936763,0.148926,-0.3125,0.956543
336708959154,0.166992,-0.312988,0.952148
336708975690,0.164062,-0.374023,0.943848
336708996747,0.136719,-0.375977,0.963867
336709019268,0.181641,-0.346191,0.947266
336709035733,0.240234,-0.306152,0.978516
336709056760,0.151367,-0.287598,0.943359
336709079248,0.141602,-0.273438,0.936523
336709095661,0.148926,-0.273438,0.908691
336709116801,0.157715,-0.285645,0.914551
336709139248,0.133789,-0.321777,0.914551
336709155700,0.131836,-0.351074,0.937988
336709176756,0.100098,-0.318359,0.940918
336709199227,0.117188,-0.327148,0.931641
336709215630,0.0908203,-0.313965,0.930664
336709236752,0.0375977,-0.331543,0.943359
336709259265,0.0820312,-0.336426,0.95459
336709275799,0.0717773,-0.316895,0.969727
336709296730,0.0693359,-0.321289,0.963379
336709319311,0.0688477,-0.285156,0.937988
336709335658,0.0527344,-0.280762,0.936523
336709356788,0.0913086,-0.316406,0.950195
336709379324,0.112305,-0.302734,0.95459
336709395693,0.0668945,-0.32666,0.950684
336709416737,0.059082,-0.324707,0.959473
336709439247,0.0439453,-0.322266,0.949219
336709455685,0.0380859,-0.357422,0.958496
336709476670,0.0854492,-0.321777,0.944824
336709499274,0.0708008,-0.317383,0.928223
336709515626,0.0722656,-0.319824,0.931152
336709536750,0.0927734,-0.304688,0.927734
336709559298,0.126465,-0.292969,0.931152
336709575681,0.113281,-0.301758,0.94873
336709596762,0.101074,-0.32959,0.962402
336709619312,0.0864258,-0.32373,0.969238
336709635663,0.0732422,-0.336426,0.958008
336709656731,0.0751953,-0.32666,0.943848
336709679273,0.0786133,-0.328613,0.954102
336709695723,0.0922852,-0.319824,0.962402
336709716704,0.0893555,-0.318359,0.957031
336709739294,0.0961914,-0.303223,0.946777
336709763158,0.0996094,-0.300781,0.950195
336709778226,0.09375,-0.313965,0.942383
336709800725,0.097168,-0.330078,0.948242
336709815676,0.0893555,-0.331055,0.949219
336709838174,0.0922852,-0.310059,0.946289
336709859249,0.0917969,-0.304199,0.944824
336709875654,0.0961914,-0.314941,0.940918
336709898128,0.0981445,-0.317871,0.944824
336709919335,0.0874023,-0.32373,0.95459
336709935717,0.0795898,-0.312012,0.956055
336709958218,0.09375,-0.316895,0.953613
336709979274,0.0986328,-0.311523,0.947266
336709995760,0.0927734,-0.321289,0.953613
336710018220,0.081543,-0.325195,0.957031
336710039263,0.0830078,-0.300293,0.95459
336710055710,0.0888672,-0.308105,0.954102
336710078189,0.0888672,-0.319336,0.949219
336710099255,0.0898438,-0.307129,0.946777
336710115751,0.0874023,-0.311035,0.937012
336710138181,0.0922852,-0.310547,0.941895
336710159236,0.097168,-0.314941,0.948242
336710175681,0.101562,-0.313965,0.95166
336710198222,0.0854492,-0.314941,0.943359
336710219242,0.0888672,-0.305664,0.952148
336710235683,0.0966797,-0.319336,0.94873
336710258262,0.0952148,-0.325684,0.962402
336710279365,0.0854492,-0.309082,0.949707
336710295769,0.0917969,-0.309082,0.947754
336710318222,0.0878906,-0.299805,0.939453
336710339206,0.0932617,-0.316895,0.941895
336710355775,0.0942383,-0.318848,0.95166
336710378233,0.0898438,-0.329102,0.958984
336710399309,0.0878906,-0.303223,0.95166
336710415752,0.0893555,-0.311035,0.952148
336710438272,0.0927734,-0.302246,0.944336
336710459280,0.0952148,-0.316895,0.944824
336710475747,0.0942383,-0.328125,0.94873
336710498200,0.0854492,-0.314453,0.957031
336710519292,0.0786133,-0.304199,0.954102
336710535727,0.09375,-0.306152,0.949219
336710557431,0.0859375,-0.321289,0.968262
336710579967,0.0727539,-0.315918,0.955566
336710595062,0.0883789,-0.304688,0.934082
336710617440,0.09375,-0.301758,0.92334
336710640036,0.114258,-0.298828,0.935547
336710654962,0.0893555,-0.322266,0.952148
336710677508,0.0898438,-0.318359,0.955078
336710699939,0.0795898,-0.318359,0.95752
336710715057,0.065918,-0.331055,0.958984
336710738100,0.0888672,-0.311523,0.970215
336710759898,0.0830078,-0.325684,0.949707
336710776441,0.0913086,-0.306641,0.949219
336710797515,0.103027,-0.3125,0.94043
336710819985,0.0961914,-0.318359,0.94873
336710835058,0.0878906,-0.308105,0.958496
336710857454,0.0786133,-0.31543,0.956543
336710879975,0.0766602,-0.320312,0.962891
336710894981,0.0864258,-0.321777,0.947266
336710917486,0.0839844,-0.310547,0.95752
336710940011,0.116699,-0.283691,0.933105
336710956479,0.123535,-0.294922,0.92041
336710977470,0.11084,-0.300781,0.948242
336710999981,0.0947266,-0.322754,0.96875
336711016446,0.0703125,-0.327148,0.970215
336711037483,0.0644531,-0.327637,0.947754
336711059885,0.0761719,-0.321777,0.95459
336711076376,0.0927734,-0.324219,0.947754
336711097517,0.0996094,-0.305176,0.944824
336711119998,0.104492,-0.310547,0.947266
336711136406,0.0996094,-0.317383,0.945312
336711157476,0.0927734,-0.309082,0.950195
336711180023,0.0898438,-0.314453,0.939453
336711203939,0.0849609,-0.315918,0.946289
336711217517,0.081543,-0.317871,0.941406
336711239999,0.103516,-0.302734,0.937012
336711256435,0.100586,-0.316895,0.95166
336711277410,0.09375,-0.329102,0.952637
336711300015,0.090332,-0.310059,0.946777
336711316397,0.0854492,-0.312012,0.941895
336711337672,0.0927734,-0.30127,0.949219
336711360018,0.097168,-0.310547,0.951172
336711376388,0.0947266,-0.305664,0.94873
336711397542,0.0883789,-0.31543,0.953613
336711419983,0.0986328,-0.299805,0.95459
336711436461,0.105957,-0.314453,0.958008
336711457494,0.109863,-0.325195,0.977051
336711480097,0.117676,-0.305176,1.00732
336711496439,0.137207,-0.255371,1.01562
336711517519,0.150879,-0.185059,1.05176
336711540017,0.118164,-0.184082,0.987305
336711556447,0.115723,-0.242188,1.00586
336711578952,0.0522461,-0.341797,0.90918
336711600016,0.20166,-0.260742,0.989258
336711616411,0.17627,-0.172852,1.00781
336711637435,0.0844727,-0.147461,1.0127
336711659888,0.0458984,-0.162109,0.976074
336711675730,0.0332031,-0.255859,0.991211
336711697468,-0.0258789,-0.228027,0.95166
336711720049,-0.16748,-0.148926,0.952148
336711735787,-0.225098,-0.0849609,1.00439
336711757477,-0.196777,-0.0595703,1.15869
336711780024,-0.0571289,-0.102051,1.30811
336711795783,0.152832,-0.250488,1.17139
336711817538,0.17041,-0.518555,1.09375
336711840022,0.0952148,-0.646484,0.654297
336711862452,0.3125,-0.537109,0.804688
336711878935,0.583008,-0.357422,0.932129
336711900054,0.594238,-0.0786133,1.09131
336711915757,0.383789,0.331543,0.999512
336711938906,0.29248,0.357422,0.760742
336711959960,0.599121,0.0991211,0.852051
336711975810,0.693848,-0.296387,0.869629
336712006448,0.615723,-0.441406,0.936035
336712019950,0.541992,-0.233887,0.969238
336712035781,0.40918,-0.11084,0.917969
336712058961,0.37207,-0.300781,0.914551
336712087472,0.274414,-0.456543,0.909668
336712095785,0.161133,-0.58252,0.972656
336712118974,-0.0258789,-0.592285,1.02051
336712147482,-0.114746,-0.44873,1.04639
336712155766,-0.116211,-0.315918,1.04004
336712178986,-0.151855,-0.270996,0.994141
336712200030,-0.280762,-0.221191,0.922852
336712215774,-0.409668,-0.147949,0.82959
336712238754,-0.436523,-0.102051,0.754395
336712259983,-0.396973,-0.0283203,0.726074
336712275774,-0.361816,-0.0107422,0.745605
336712298976,-0.341309,0.106934,0.768555
336712320064,-0.326172,0.192383,0.750977
336712335832,-0.308594,0.189453,0.6875
336712366266,-0.17627,0.250977,0.720215
336712382909,-0.0131836,0.217285,0.800293
336712395804,0.102539,0.203125,0.873047
336712426500,0.0600586,0.318848,0.833008
336712440097,0.00732422,0.414551,0.76123
336712455793,-0.0532227,0.26709,0.723633
336712478908,-0.0947266,0.156738,0.758789
336712500010,-0.178711,0.0766602,0.806641
336712515725,-0.292969,0.0288086,0.838379
336712539024,-0.276855,0.00341797,0.850586
336712561403,-0.296387,-0.0336914,0.873047
336712575783,-0.337402,-0.0698242,0.888672
336712598970,-0.359863,-0.147949,0.937988
336712620026,-0.349609,-0.175781,1.01221
336712635831,-0.375,-0.155762,1.07715
336712658311,-0.368652,-0.202148,1.08105
336712680138,-0.256348,-0.379883,1.05664
336712695773,-0.186035,-0.543457,1.05225
336712718311,-0.110352,-0.505371,1.00146
336712739988,0.0522461,-0.462891,1.02441
336712763910,0.126953,-0.370117,1.14062
336712778350,0.101074,-0.235352,1.13867
336712800026,0.0800781,-0.209961,1.10938
336712815816,0.13916,-0.123047,1.12061
336712838335,0.233398,-0.0380859,1.19775
336712861499,0.254395,0.0229492,1.21191
336712875872,0.228027,0.0673828,1.17236
336712898307,0.249023,0.0581055,1.1333
336712921460,0.277344,0.196777,1.16602
336712935825,0.256348,0.369629,0.995605
336712958365,0.263672,0.269043,0.932129
336712987563,0.385254,0.130371,0.963867
336713004038,0.480957,0.059082,0.970215
336713018366,0.583496,0.196777,0.999512
336713041526,0.644043,0.214355,0.972656
336713062623,0.645996,0.257324,0.939941
336713078405,0.652832,0.259766,0.877441
336713101563,0.694824,0.308105,0.806641
336713122613,0.6875,0.296387,0.754395
336713138409,0.606934,0.289551,0.737305
336713161567,0.480469,0.200684,0.748535
336713182618,0.437988,0.0581055,0.75
336713198314,0.36084,-0.0996094,0.80127
336713221571,0.258789,-0.0893555,0.806641
336713242610,0.0947266,-0.0141602,0.826172
336713258334,-0.0517578,-0.138672,0.899902
336713281571,-0.176758,-0.256348,0.95459
336713302626,-0.311035,-0.176758,0.865234
336713318321,-0.404297,-0.0996094,0.750977
336713341597,-0.449707,-0.136719,0.67041
336713362583,-0.52002,-0.147949,0.718262
336713378361,-0.550293,-0.0703125,0.766602
336713402152,-0.414551,-0.0385742,0.773926
336713422539,-0.503906,-0.0708008,0.850098
336713438352,-0.581543,-0.0688477,0.849609
336713461967,-0.700195,0.0756836,0.797852
336713482610,-0.793457,0.0898438,0.683594
336713498366,-0.955078,0.192871,0.666016
336713521592,-0.952637,0.23584,0.599609
336713542630,-0.872559,0.190918,0.552246
336713558343,-0.744629,0.22998,0.665039
336713580837,-0.534668,0.25,0.734863
336713603979,-0.472168,0.255859,0.794922
336713618386,-0.44873,0.304199,0.84082
336713640871,-0.33252,0.318359,0.905762
336713662617,-0.196777,0.254883,0.963867
336713677582,-0.12207,0.23877,1.00146
336713691965,-0.0771484,0.29248,1.0127
336713714453,-0.0751953,0.300293,0.998535
336713737685,-0.0732422,0.31543,0.966797
336713751953,-0.109863,0.341797,0.929688
336713774434,-0.0888672,0.420898,0.928223
336713797572,-0.0986328,0.441895,0.943359
336713811937,-0.126953,0.433594,0.91748
336713834438,-0.126465,0.446289,0.893555
336713857620,-0.150391,0.445801,0.88916
336713871926,-0.059082,0.430176,0.885742
336713894424,-0.0327148,0.293945,0.867676
336713917623,-0.0732422,0.24707,0.876465
336713931962,-0.0390625,0.23877,0.881348
336713954455,-0.0185547,0.0932617,0.958984
336713977637,0.00634766,0.0996094,0.983398
336713992031,0.11084,0.162109,1.00195
336714014436,0.262695,0.271973,1.02637
336714037627,0.303223,0.209961,0.995117
336714051989,0.270508,0.0141602,0.960449
336714075948,0.183105,-0.108398,0.882324
336714097596,0.27832,-0.168945,0.9375
336714111889,0.411621,-0.196777,0.907715
336714134410,0.416992,-0.380859,0.945801
336714157643,0.38916,-0.343262,0.944824
336714171926,0.408691,-0.206055,0.902832
336714194451,0.39209,-0.17334,0.938477
336714217542,0.334961,-0.202637,1.00635
336714231974,0.274902,-0.266602,1.04541
336714254509,0.32959,-0.251465,1.03955
336714277613,0.375488,-0.140137,1.04053
336714291951,0.36084,0.0131836,1.01611
336714314441,0.364746,0.0776367,0.976074
336714337612,0.415039,0.114746,0.92334
336714352028,0.455078,0.195801,0.894531
336714374482,0.457031,0.288574,0.889648
336714397629,0.420898,0.354004,0.866699
336714412002,0.370605,0.345703,0.858887
336714434385,0.354004,0.272949,0.801758
336714458077,0.379883,0.228516,0.746582
336714471956,0.302246,0.381348,0.672363
336714494458,0.257812,0.544922,0.654785
336714517654,0.352051,0.608398,0.637207
336714531882,0.48877,0.533691,0.706055
336714554505,0.5625,0.532227,0.743164
336714577601,0.55957,0.658203,0.672363
336714591950,0.499512,0.71875,0.583008
336714614491,0.544922,0.651855,0.70166
336714637625,0.618164,0.52002,0.813965
336714651974,0.69043,0.470215,0.85791
336714674475,0.688965,0.527344,0.888672
336714696956,0.686523,0.587402,0.869141
336714711920,0.696777,0.562012,0.845215
336714734451,0.735352,0.513184,0.838867
336714756968,0.774902,0.405762,0.840332
336714771926,0.711914,0.261719,0.772949
336714794493,0.651855,0.135742,0.855469
336714816964,0.592773,0.164062,0.890625
336714831954,0.536621,0.15332,0.88623
336714854460,0.463379,0.0327148,0.880859
336714876994,0.379883,-0.168945,0.955078
336714891988,0.302246,-0.211914,0.969238
336714914515,0.250977,-0.148438,0.905762
336714937033,0.172852,-0.203613,0.909668
336714951944,0.0419922,-0.288574,0.986816
336714974528,-0.0258789,-0.23877,0.975098
336714996933,-0.0405273,-0.191406,0.948242
336715011980,-0.111816,-0.158203,0.921387
336715034507,-0.199707,-0.081543,0.901367
336715057003,-0.225098,-0.000976562,0.834961
336715071977,-0.214844,0.015625,0.795898
336715094479,-0.203125,0.0478516,0.765137
336715116952,-0.217773,0.0263672,0.724121
336715131930,-0.256348,0.0732422,0.706543
336715154436,-0.229004,0.11377,0.683105
336715176937,-0.131348,0.113281,0.656738
336715191928,-0.114746,0.103516,0.650879
336715214440,-0.126953,0.125488,0.701172
336715236963,-0.0371094,0.189453,0.731445
336715252613,-0.0185547,0.156738,0.709961
336715274500,0.0869141,0.208984,0.805176
336715296934,0.181152,0.21875,0.86377
336715311919,0.262695,0.195312,0.919922
336715334464,0.257324,0.142578,1.01514
336715356961,0.30127,0.148926,1.02734
336715372004,0.29541,0.13916,1.05762
336715394478,0.301758,0.138184,1.06396
336715416935,0.314941,0.126953,1.11426
336715431944,0.330078,0.0957031,1.13477
336715454459,0.339844,0.128418,1.11279
336715476991,0.337402,0.134277,1.11133
336715493408,0.343262,0.129883,1.13623
336715514441,0.351562,0.101074,1.125
336715536972,0.332031,0.103027,1.07129
336715553428,0.346191,0.078125,1.0459
336715574487,0.361816,0.0292969,1.05518
336715596987,0.362305,-0.00683594,1.06836
336715613368,0.317871,0.000488281,1.02148
336715634456,0.289551,0.0141602,0.975586
336715656959,0.29541,-0.0253906,0.907227
336715673396,0.260254,-0.130371,0.989258
336715694460,0.232422,-0.117188,0.954102
336715716944,0.275391,-0.149902,0.986328
336715733420,0.304199,-0.151367,0.985352
336715754473,0.326172,-0.168945,1.01416
336715777042,0.294434,-0.126465,1.01221
336715793427,0.27832,-0.0625,0.848145
336715814539,0.334961,-0.0766602,0.876953
336715837050,0.363281,-0.169434,0.962891
336715853406,0.327148,-0.147461,1.01807
336715874619,0.268066,-0.0864258,1.00244
336715897027,0.250488,-0.111328,0.996582
336715913652,0.237793,-0.150879,1
336715934489,0.228516,-0.115234,0.980957
336715957144,0.228027,-0.114746,0.973145
336715973437,0.218262,-0.140137,0.953125
336715994487,0.216797,-0.14502,0.926758
336716017003,0.243652,-0.134277,0.960449
336716033419,0.27002,-0.154297,0.946289
336716054484,0.276855,-0.136719,0.962891
336716070936,0.254883,-0.130859,0.924805
336716093443,0.274414,-0.139648,0.92627
336716114559,0.303711,-0.167969,0.983887
336716130948,0.296387,-0.200684,0.999512
336716153440,0.25,-0.181641,0.998535
336716174606,0.214355,-0.166016,0.945801
336716190935,0.197754,-0.150879,0.942383
336716213431,0.219238,-0.135254,0.932129
336716234489,0.237305,-0.141113,0.94043
336716250967,0.241699,-0.0830078,0.914062
336716273486,0.291016,-0.0854492,0.894531
336716294531,0.314941,-0.128418,0.939941
336716310996,0.330078,-0.125,0.950195
336716333436,0.322266,-0.129395,0.964844
336716354573,0.305176,-0.14209,0.987305
336716370901,0.257324,-0.165039,0.980957
336716393441,0.214355,-0.173828,0.985352
336716416023,0.19873,-0.188477,0.963379
336716430910,0.208984,-0.192871,0.986328
336716453512,0.194336,-0.181152,0.992676
336716475992,0.182617,-0.182129,0.995117
336716491014,0.15918,-0.166504,0.985352
336716513587,0.175293,-0.115723,0.932129
336716535986,0.244629,-0.104492,0.935059
336716551006,0.313965,-0.13916,0.942383
336716573504,0.320801,-0.181641,1.00586
336716595956,0.286133,-0.155273,0.980957
336716612444,0.26123,-0.133301,0.993652
336716633462,0.219238,-0.178223,0.995605
336716655963,0.175293,-0.183105,0.981445
336716672519,0.162109,-0.161621,0.960449
336716693500,0.192383,-0.151855,0.957031
336716716028,0.239746,-0.199707,0.967773
336716732459,0.214355,-0.200684,0.93457
336716753477,0.206543,-0.144531,0.932129
336716775132,0.234863,-0.191895,0.939941
336716797771,0.239258,-0.190918,0.973145
336716812728,0.210449,-0.164551,0.952148
336716835254,0.207031,-0.183594,0.964355
336716857769,0.206543,-0.189453,0.980469
336716872685,0.206543,-0.175293,0.970703
336716895208,0.227051,-0.166504,0.972656
336716917699,0.241699,-0.1875,0.98584
336716932770,0.226562,-0.177734,0.981934
336716955288,0.189941,-0.179688,0.942383
336716970960,0.210938,-0.155273,0.955566
336716992784,0.219238,-0.17041,0.952637
336717015161,0.232422,-0.181641,0.952637
336717030951,0.220703,-0.17334,0.956055
336717052696,0.208008,-0.17627,0.95459
336717075158,0.217285,-0.183594,0.97168
336717090980,0.217285,-0.183594,0.975098
336717112758,0.223633,-0.168457,0.963867
336717135242,0.220703,-0.182129,0.966797
336717151029,0.216309,-0.168945,0.965332
336717172740,0.219238,-0.171387,0.962402
336717195246,0.223145,-0.17627,0.955078
336717211640,0.231445,-0.171387,0.958496
336717232789,0.23584,-0.17627,0.963867
336717255224,0.211914,-0.177246,0.964355
336717271696,0.205566,-0.170898,0.970215
336717292762,0.222656,-0.162598,0.966797
336717315165,0.228516,-0.173828,0.961914
336717331658,0.231934,-0.181641,0.95459
336717352656,0.229492,-0.177246,0.960449
336717375293,0.201172,-0.176758,0.955566
336717391004,0.212891,-0.175293,0.960449
336717412756,0.216309,-0.193359,0.953125
336717435215,0.230957,-0.177246,0.959473
336717450991,0.226074,-0.180664,0.966797
336717472740,0.217773,-0.172852,0.963379
336717495259,0.213867,-0.174316,0.950195
336717510968,0.213867,-0.18457,0.946777
336717534112,0.226562,-0.19043,0.956055
336717557136,0.214355,-0.178711,0.973145
336717570964,0.200684,-0.171875,0.958008
336717594197,0.205078,-0.17041,0.955078
336717615294,0.217773,-0.181641,0.979492
336717631082,0.199219,-0.187988,0.977051
336717654191,0.192383,-0.179199,0.966309
336717675160,0.213867,-0.174316,0.960938
336717690996,0.224609,-0.177246,0.97998
336717714166,0.224609,-0.172852,0.963867
336717735196,0.22168,-0.183594,0.951172
336717750982,0.214355,-0.17627,0.937988
336717774185,0.240234,-0.181641,0.959473
336717795224,0.229492,-0.169434,0.975586
336717810961,0.211914,-0.166992,0.967773
336717834170,0.207031,-0.17627,0.956543
336717855244,0.212402,-0.172363,0.962891
336717871057,0.21582,-0.179688,0.967773
336717894148,0.226562,-0.171875,0.973633
336717915192,0.219727,-0.175781,0.964844
336717931042,0.210449,-0.174805,0.96582
336717954183,0.21582,-0.167969,0.962402
336717975363,0.210938,-0.180664,0.968262
336717991059,0.208008,-0.174316,0.965332
336718014181,0.205078,-0.181641,0.966309
336718035189,0.194824,-0.180664,0.958008
336718050990,0.210449,-0.175293,0.964844
336718074128,0.224121,-0.176758,0.959961
336718095280,0.224121,-0.166504,0.965332
336718111029,0.224121,-0.172852,0.95752
336718134216,0.222656,-0.17627,0.964355
336718155250,0.211914,-0.181641,0.96582
336718170980,0.216797,-0.179688,0.960449
336718194216,0.22168,-0.177734,0.963867
336718215187,0.213867,-0.175781,0.958008
336718231048,0.208984,-0.178223,0.966797
336718254229,0.214355,-0.177246,0.970703
336718275261,0.220703,-0.180176,0.952637
336718291015,0.216309,-0.18457,0.961914
336718313595,0.209473,-0.185059,0.956543
336718335209,0.208984,-0.17627,0.963867
336718351067,0.214844,-0.179688,0.964355
336718373559,0.217285,-0.182129,0.96582
336718395201,0.210938,-0.182129,0.969238
336718410972,0.216309,-0.177246,0.960938
336718433565,0.209961,-0.174805,0.950195
336718455319,0.229004,-0.181152,0.956543
336718471044,0.226074,-0.18457,0.956055
336718493501,0.219238,-0.185059,0.956055
336718516749,0.213867,-0.181641,0.963379
336718531440,0.220215,-0.186523,0.958984
336718553511,0.22168,-0.181641,0.959961
336718576669,0.222656,-0.177734,0.965332
336718591005,0.223633,-0.174316,0.958496
336718613511,0.22168,-0.185059,0.959961
336718636653,0.22168,-0.17627,0.960938
336718651102,0.222168,-0.182129,0.961914
336718680349,0.222656,-0.182129,0.961426
336718696777,0.223633,-0.182129,0.959473
336718711003,0.217285,-0.174805,0.963867
336718733570,0.218262,-0.186035,0.957031
336718756720,0.220703,-0.176758,0.952637
336718771135,0.229004,-0.184082,0.955566
336718793602,0.226562,-0.183105,0.962891
336718816736,0.231445,-0.141113,0.954102
336718831058,0.254883,-0.153809,0.921875
336718853554,0.297363,-0.197754,0.962891
336718876738,0.248047,-0.210449,0.965332
336718890999,0.206543,-0.194824,0.958008
336718913591,0.21582,-0.172852,0.964355
336718936708,0.211426,-0.191406,0.980469
336718957846,0.206055,-0.174805,0.971191
336718981652,0.208496,-0.16748,0.949219
336718996733,0.229004,-0.183105,0.953125
336719017851,0.234375,-0.181641,0.951172
336719033628,0.234863,-0.1875,0.955566
336719056686,0.233398,-0.175293,0.952148
336719077755,0.23584,-0.166992,0.95752
336719093565,0.230957,-0.183105,0.95752
336719116779,0.224121,-0.17627,0.961914
336719137790,0.223633,-0.186523,0.957031
336719153597,0.23584,-0.179199,0.949219
336719176802,0.23877,-0.185059,0.953613
336719197812,0.241211,-0.176758,0.957031
336719213561,0.233398,-0.180176,0.948242
336719236099,0.22998,-0.186523,0.953125
336719257848,0.230469,-0.180664,0.965332
336719273560,0.233887,-0.175293,0.962891
336719296057,0.23291,-0.17334,0.958496
336719317827,0.234375,-0.186523,0.95166
336719333616,0.236816,-0.182617,0.958008
336719356077,0.233398,-0.176758,0.955078
336719377946,0.236328,-0.18457,0.960938
336719393656,0.237305,-0.168945,0.951172
336719416158,0.238281,-0.18457,0.955566
336719439272,0.240234,-0.183105,0.95752
336719453604,0.228516,-0.191895,0.946777
336719476077,0.224121,-0.186523,0.952148
336719499238,0.227051,-0.181152,0.933105
336719513648,0.234863,-0.19043,0.952148
336719536128,0.239258,-0.189941,0.952148
336719559261,0.231934,-0.184082,0.95166
336719573612,0.23584,-0.178711,0.964844
336719596079,0.231934,-0.186035,0.970215
336719619243,0.230469,-0.185059,0.978027
336719633639,0.223145,-0.19043,0.96875
336719656173,0.221191,-0.183594,0.969238
336719679288,0.229492,-0.182617,0.970215
336719693654,0.228516,-0.188965,0.960938
336719716063,0.225098,-0.191406,0.960449
336719739308,0.22998,-0.193359,0.947754
336719760358,0.22998,-0.185059,0.959961
336719776154,0.220215,-0.183105,0.956055
336719799237,0.222168,-0.185547,0.952637
336719814465,0.23291,-0.191895,0.961426
336719836071,0.221191,-0.199219,0.962891
336719859414,0.236328,-0.195312,0.987793
336719873596,0.193359,-0.20459,0.960938
336719895365,0.203125,-0.167969,0.95459
336719909684,0.202637,-0.1875,0.944336
336719932887,0.212402,-0.186035,0.955566
336719955367,0.213867,-0.193359,0.947266
336719969712,0.220215,-0.190918,0.963379
336719992949,0.232422,-0.182617,0.954102
336720015318,0.23291,-0.180664,0.960449
336720029743,0.215332,-0.158203,0.956055
336720052902,0.212891,-0.17041,0.959473
336720075415,0.216797,-0.177734,0.960449
336720089753,0.208984,-0.185059,0.964844
336720112916,0.207031,-0.180664,0.968262
336720135294,0.220215,-0.174316,0.967285
336720149747,0.22168,-0.181152,0.974121
336720172872,0.209473,-0.173828,0.961914
336720195396,0.212402,-0.191406,0.962891
336720209715,0.202637,-0.182129,0.955566
336720232888,0.214844,-0.182617,0.963867
336720255291,0.228516,-0.182617,0.964844
336720269748,0.21582,-0.177734,0.965332
336720292931,0.21582,-0.178711,0.948242
336720315311,0.214355,-0.183594,0.958984
336720329734,0.222168,-0.186523,0.959473
336720352182,0.215332,-0.183105,0.964844
336720367123,0.206543,-0.189453,0.966309
336720389702,0.206055,-0.180176,0.95752
336720412244,0.208008,-0.175781,0.959473
336720427229,0.213379,-0.1875,0.959473
336720449670,0.221191,-0.184082,0.958984
336720472202,0.223145,-0.185547,0.95752
336720487138,0.222656,-0.181641,0.958008
336720509629,0.21875,-0.181641,0.950684
336720532226,0.220703,-0.182617,0.960938
336720547256,0.230957,-0.186035,0.973633
336720569744,0.213867,-0.185547,0.969238
336720592201,0.222656,-0.171875,0.956055
336720607196,0.243652,-0.177246,0.954102
336720629696,0.247559,-0.187012,0.965332
336720652250,0.220215,-0.205078,0.958496
336720667207,0.217773,-0.185059,0.960938
336720689724,0.210938,-0.189941,0.963379
336720712218,0.213379,-0.196777,0.970215
336720727254,0.206055,-0.182617,0.969238
336720749705,0.200684,-0.178223,0.959473
336720772283,0.211914,-0.178223,0.959961
336720787233,0.219238,-0.189453,0.95752
336720809657,0.227051,-0.188965,0.95459
336720832221,0.222656,-0.196777,0.950195
336720847245,0.22168,-0.183594,0.955566
336720869740,0.217285,-0.184082,0.960449
336720892295,0.21582,-0.188965,0.96875
336720907221,0.21582,-0.188477,0.964844
336720929746,0.210938,-0.190918,0.961426
336720952164,0.205566,-0.180664,0.952148
336720967260,0.222168,-0.199219,0.962891
336720989737,0.226562,-0.183594,0.962891
336721012217,0.223633,-0.182617,0.955566
336721027240,0.223633,-0.18457,0.95752
336721049778,0.231934,-0.180176,0.966309
336721072271,0.226562,-0.195801,0.958496
336721087246,0.22998,-0.183105,0.960449
336721109803,0.218262,-0.191406,0.961914
336721132242,0.220215,-0.18457,0.954102
336721148665,0.228516,-0.184082,0.966309
336721169713,0.229004,-0.175781,0.961914
336721192268,0.212402,-0.188965,0.969727
336721208730,0.208008,-0.186523,0.957031
336721229764,0.225098,-0.177734,0.969238
336721252228,0.220703,-0.196289,0.969727
336721268701,0.230469,-0.177734,0.964844
336721289702,0.215332,-0.18457,0.951172
336721312290,0.222168,-0.183105,0.968262
336721328713,0.214355,-0.178223,0.960938
336721349753,0.217773,-0.189941,0.959473
336721372286,0.223145,-0.19043,0.963379
336721388659,0.211426,-0.191406,0.950684
336721409760,0.219727,-0.179688,0.950195
336721432242,0.224121,-0.188965,0.968262
336721448684,0.212402,-0.181641,0.959961
336721469732,0.213379,-0.178711,0.953125
336721492276,0.212402,-0.193359,0.947266
336721508671,0.22168,-0.19873,0.977539
336721529668,0.212891,-0.192383,0.969238
336721552307,0.212891,-0.170898,0.96875
336721568709,0.209473,-0.176758,0.963379
336721589752,0.21875,-0.182617,0.966797
336721612194,0.215332,-0.174316,0.958008
336721628742,0.211426,-0.177246,0.963379
336721649779,0.213379,-0.182617,0.958496
336721672225,0.226074,-0.191895,0.963379
336721688602,0.226562,-0.166016,0.963867
336721709839,0.21875,-0.17334,0.966309
336721732277,0.214844,-0.174805,0.962402
336721748684,0.206055,-0.175293,0.961426
336721769763,0.222168,-0.178223,0.964355
336721792296,0.211914,-0.175293,0.959961
336721808716,0.216309,-0.178711,0.961914
336721829764,0.214844,-0.171387,0.961914
336721852189,0.212402,-0.188477,0.963867
336721868725,0.212402,-0.182617,0.966309
336721889814,0.204102,-0.178711,0.964844
336721912244,0.209961,-0.180176,0.960938
336721928752,0.206543,-0.174805,0.966797
336721949807,0.212402,-0.194824,0.974609
336721972322,0.209473,-0.17627,0.970215
336721988690,0.200684,-0.166992,0.958008
336722009842,0.213867,-0.178711,0.961914
336722032264,0.213867,-0.17334,0.95459
336722048755,0.231934,-0.166016,0.954102
336722069785,0.234375,-0.168457,0.961914
336722092291,0.228027,-0.17041,0.960449
336722108722,0.225586,-0.159668,0.953613
336722131212,0.220703,-0.178711,0.965332
336722152303,0.199707,-0.195312,0.953125
336722168739,0.220703,-0.181152,0.964844
336722197963,0.214355,-0.182617,0.969727
336722212264,0.216309,-0.164551,0.962402
336722228683,0.220215,-0.133301,0.965332
336722251172,0.23584,-0.150879,0.936035
336722272300,0.258301,-0.208984,0.95459
336722288687,0.243652,-0.206055,0.974609
336722311128,0.227051,-0.189941,0.949707
336722332382,0.222656,-0.183105,0.935547
336722348681,0.229492,-0.203125,0.959961
336722371237,0.224121,-0.197266,0.973145
336722392288,0.206543,-0.194824,0.968262
336722408802,0.207031,-0.206543,0.970703
336722431238,0.213867,-0.193848,0.953125
336722452302,0.201172,-0.196777,0.960938
336722468678,0.216797,-0.178223,0.952148
336722491246,0.227539,-0.178711,0.963379
336722512271,0.22998,-0.184082,0.960938
336722528777,0.227051,-0.177734,0.959961
336722551174,0.224609,-0.183105,0.941406
336722572228,0.232422,-0.165527,0.941895
336722588734,0.261719,-0.166992,0.939453
336722611186,0.260742,-0.188477,0.973633
336722632286,0.230957,-0.186523,0.965332
336722648779,0.222168,-0.180176,0.945801
336722671254,0.226074,-0.1875,0.969727
336722692290,0.212402,-0.201172,0.972656
336722708782,0.213379,-0.174316,0.964355
336722731251,0.218262,-0.180176,0.950195
336722752324,0.239746,-0.17627,0.955078
336722768714,0.231445,-0.186523,0.959961
336722791151,0.221191,-0.184082,0.950684
336722812337,0.230469,-0.183105,0.954102
336722828711,0.241211,-0.187988,0.963379
336722851259,0.249023,-0.178223,0.974121
336722872334,0.292969,-0.195801,1.04883
336722888757,0.190918,-0.289551,1.02197
336722911199,0.0380859,-0.148926,0.935059
336722932332,0.10498,-0.17334,0.921875
336722948752,0.192871,-0.246094,0.995117
336722971264,0.192871,-0.169922,0.948242
336722992325,0.239746,-0.101074,0.910156
336723008004,0.29834,-0.15625,0.881348
336723030532,0.279785,-0.192383,0.905762
336723052975,0.268066,-0.183105,0.930664
336723067988,0.285156,-0.196777,0.970703
336723090425,0.208984,-0.218262,0.986328
336723113035,0.172363,-0.161133,0.973145
336723127984,0.175293,-0.158203,0.935547
336723150507,0.214355,-0.208496,0.969727
336723173009,0.261719,-0.191895,0.979004
336723187991,0.246094,-0.185547,0.988281
336723210443,0.224121,-0.191406,0.959961
336723233044,0.194336,-0.187988,0.932129
336723249446,0.217773,-0.187012,0.958496
336723270504,0.20752,-0.223145,0.990234
336723292973,0.179688,-0.214844,0.98291
336723309365,0.164062,-0.194336,0.976074
336723330614,0.164551,-0.190918,0.950195
336723352950,0.195801,-0.189941,0.951172
336723369330,0.221191,-0.21875,0.959473
336723390541,0.22998,-0.216309,0.95752
336723413084,0.227539,-0.197266,0.95752
336723429446,0.217285,-0.196289,0.937988
336723450509,0.234863,-0.191406,0.958008
336723472992,0.22998,-0.209961,0.957031
336723489455,0.229492,-0.196777,0.967285
336723510494,0.220703,-0.20166,0.970703
336723533024,0.214844,-0.206055,0.964355
336723549440,0.213379,-0.205078,0.969238
336723570503,0.218262,-0.198242,0.967285
336723592989,0.212891,-0.195312,0.959473
336723609411,0.196289,-0.210449,0.960938
336723630642,0.202148,-0.245117,0.98291
336723653074,0.204102,-0.216797,0.984863
336723669468,0.160645,-0.203125,0.958984
336723690442,0.140137,-0.190918,0.945312
336723713075,0.17041,-0.159668,0.9375
336723729415,0.236328,-0.165039,0.927734
336723750593,0.27002,-0.161621,0.93457
336723773022,0.256348,-0.206543,0.933594
336723789405,0.266113,-0.202148,0.953125
336723810507,0.241211,-0.203125,0.963379
336723833149,0.216309,-0.195801,0.969238
336723849405,0.199219,-0.210938,0.964355
336723870578,0.1875,-0.208496,0.981934
336723893050,0.179688,-0.205078,0.962402
336723909480,0.186035,-0.196289,0.96875
336723930553,0.188965,-0.203125,0.970215
336723953037,0.188965,-0.200195,0.961426
336723969486,0.191895,-0.199707,0.95752
336723990507,0.210938,-0.189453,0.949219
336724013012,0.235352,-0.174805,0.953613
336724028775,0.228516,-0.173828,0.927734
336724050541,0.253418,-0.170898,0.936523
336724073034,0.255371,-0.214355,0.942383
336724088787,0.250488,-0.214844,0.945801
336724110491,0.226074,-0.214355,0.962891
336724133021,0.202637,-0.223633,0.96875
336724148734,0.192383,-0.22168,0.974609
336724171994,0.187012,-0.234375,0.987305
336724193120,0.160645,-0.213867,0.972168
336724208837,0.17627,-0.184082,0.958984
336724231935,0.213867,-0.19873,0.947266
336724253124,0.23291,-0.212891,0.945801
336724268810,0.244141,-0.194336,0.95166
336724291970,0.229004,-0.211426,0.967285
336724313033,0.213379,-0.20459,0.958008
336724328782,0.217773,-0.195801,0.975098
336724352020,0.197266,-0.209473,0.971191
336724373089,0.179199,-0.189453,0.958496
336724388800,0.210938,-0.198242,0.962402
336724411941,0.200684,-0.227539,0.967773
336724432982,0.188477,-0.222656,0.949219
336724448831,0.208008,-0.179688,0.956543
336724472034,0.225098,-0.177246,0.929688
336724493083,0.253906,-0.182129,0.949707
336724508756,0.245117,-0.162598,0.92334
336724531998,0.259277,-0.191406,0.944336
336724553056,0.263184,-0.194336,0.964355
336724568933,0.234375,-0.234375,0.958008
336724591997,0.210449,-0.20459,0.961426
336724613681,0.208496,-0.213379,0.976074
336724628810,0.20166,-0.211914,0.992188
336724651991,0.169434,-0.208984,0.982422
336724673050,0.158203,-0.214844,0.952637
336724689001,0.193848,-0.208496,0.955566
336724712013,0.20459,-0.216797,0.967773
336724733105,0.200195,-0.220703,0.949707
336724748977,0.210938,-0.213379,0.947266
336724772127,0.219238,-0.194824,0.950684
336724793059,0.218262,-0.20166,0.943848
336724808807,0.239746,-0.190918,0.950684
336724832064,0.246094,-0.189941,0.939453
336724853252,0.233887,-0.216309,0.949707
336724868851,0.236328,-0.205566,0.95166
336724891966,0.234375,-0.20166,0.966797
336724913057,0.21875,-0.200195,0.963379
336724928814,0.213379,-0.20752,0.956543
336724951308,0.224609,-0.204102,0.961914
336724973054,0.213867,-0.201172,0.956055
336724988807,0.228516,-0.202148,0.956543
336725011297,0.234375,-0.19043,0.958984
336725033038,0.208496,-0.202637,0.947266
336725048867,0.224609,-0.199707,0.952148
336725071348,0.235352,-0.193848,0.970215
336725093132,0.213867,-0.207031,0.961426
336725108875,0.211426,-0.202637,0.950684
336725131355,0.21582,-0.206055,0.958984
336725154596,0.20166,-0.205078,0.943848
336725168835,0.235352,-0.205078,0.95459
336725191360,0.240234,-0.204102,0.956543
336725214462,0.218262,-0.214355,0.949219
336725228920,0.226562,-0.199219,0.953125
336725251404,0.237793,-0.203125,0.95459
336725274557,0.229492,-0.208496,0.960938
336725288843,0.224121,-0.197266,0.956055
336725311320,0.213379,-0.204102,0.949219
336725334606,0.228027,-0.191895,0.958984
336725348832,0.222656,-0.201172,0.964355
336725371382,0.211426,-0.20459,0.957031
336725394580,0.220703,-0.197266,0.958008
336725408866,0.219238,-0.198242,0.97168
336725431353,0.206055,-0.20459,0.958496
336725454632,0.205566,-0.197266,0.963379
336725468782,0.218262,-0.203613,0.950684
336725491383,0.226074,-0.210938,0.95459
336725514561,0.218262,-0.200195,0.951172
336725528863,0.213867,-0.195801,0.949707
336725551342,0.216797,-0.200195,0.951172
336725574566,0.231445,-0.203613,0.961426
336725588842,0.212891,-0.209961,0.962891
336725611261,0.200684,-0.190918,0.955078
336725634574,0.213867,-0.202148,0.961426
336725655619,0.212402,-0.211914,0.958496
336725671418,0.208984,-0.187012,0.970703
336725694564,0.195312,-0.164551,0.97168
336725715698,0.208496,-0.182617,0.955078
336725731325,0.220703,-0.186035,0.963867
336725754534,0.212891,-0.187988,0.962402
336725775533,0.210938,-0.194336,0.960938
336725791311,0.217285,-0.179199,0.964844
336725814567,0.207031,-0.188477,0.969727
336725835623,0.208008,-0.178711,0.966797
336725851347,0.213867,-0.179688,0.958008
336725873847,0.212402,-0.20166,0.974609
336725895524,0.207031,-0.1875,0.969238
336725911306,0.198242,-0.186035,0.95459
336725933888,0.219238,-0.180664,0.952637
336725955629,0.225586,-0.179688,0.958496
336725971411,0.213867,-0.183594,0.95752
336725993926,0.213379,-0.17334,0.950195
336726015600,0.212402,-0.183594,0.951172
336726031346,0.219238,-0.18457,0.960449
336726053886,0.203125,-0.203125,0.966797
336726077033,0.190918,-0.195801,0.960938
336726099581,0.200195,-0.197266,0.965332
336726104928,0.197754,-0.196777,0.96582
336726127463,0.208984,-0.188965,0.964355
336726150624,0.210449,-0.1875,0.95752
336726164955,0.212891,-0.169922,0.960449
336726187447,0.220215,-0.134766,0.946777
336726210550,0.251953,-0.172852,0.915527
336726224963,0.266113,-0.237793,0.980469
336726247432,0.23877,-0.204102,0.95459
336726270670,0.215332,-0.194336,0.952637
336726286374,0.203613,-0.231934,0.949219
336726307525,0.213867,-0.224609,0.969727
336726330646,0.202148,-0.212891,0.971191
336726344985,0.20166,-0.209473,0.975098
336726367414,0.205078,-0.213379,0.981934
336726390603,0.234375,-0.189453,1.00049
336726413149,0.27832,-0.192871,1.0166
336726427396,0.22168,-0.208008,1.03906
336726450668,0.0942383,-0.253418,0.979492
336726465027,0.0776367,-0.212891,0.916016
336726487431,0.19043,-0.202637,0.940918
336726510583,0.194336,-0.151855,0.959473
336726524952,0.195312,-0.130859,0.899414
336726547440,0.215332,-0.185059,0.92334
336726570599,0.168945,-0.216797,0.918945
336726584982,0.201172,-0.212891,0.955078
336726607429,0.191406,-0.246094,0.97168
336726630630,0.168457,-0.240723,0.993164
336726644987,0.138672,-0.216797,0.969238
336726667492,0.14502,-0.188477,0.961426
336726690626,0.120117,-0.199707,0.95752
336726704937,0.146484,-0.20459,0.975586
336726727440,0.178223,-0.202148,1.00537
336726750657,0.236328,-0.263184,1.0498
336726764989,0.125488,-0.212402,1.01123
336726787392,0.0693359,-0.125488,0.993652
336726810608,0.116211,-0.0639648,0.866699
336726825068,0.188965,-0.163086,0.847656
336726847490,0.271484,-0.222656,0.946289
336726870609,0.269043,-0.27002,0.991699
336726884993,0.215332,-0.246582,0.990234
336726907466,0.154297,-0.219727,0.975098
336726930576,0.129883,-0.224121,0.989746
336726953122,0.138672,-0.213867,0.999023
336726967519,0.133789,-0.189453,0.981934
336726990778,0.130859,-0.212402,0.990234
336727004963,0.10498,-0.192871,0.952148
336727027446,0.106934,-0.188477,0.931152
336727050047,0.134277,-0.205078,0.93457
336727065033,0.169922,-0.244141,0.976074
336727087421,0.188965,-0.248047,0.99707
336727110001,0.130859,-0.209473,1.01416
336727125030,0.0854492,-0.162598,0.977051
336727147540,0.108887,-0.103516,0.888184
336727170042,0.164551,-0.138672,0.808105
336727184953,0.30127,-0.317383,0.998047
336727207537,0.243164,-0.333984,1.01025
336727229962,0.160645,-0.184082,0.976074
336727245062,0.144531,-0.187988,0.956543
336727267503,0.138672,-0.254883,0.977051
336727289971,0.174805,-0.217773,0.975098
336727304922,0.186523,-0.175293,0.980469
336727327597,0.145996,-0.213379,0.995605
336727349970,0.125977,-0.273926,0.998535
336727365058,0.125488,-0.268066,0.977051
336727387603,0.121582,-0.253906,1.01074
336727410089,0.135742,-0.204102,1.01025
336727425085,0.0947266,-0.127441,0.999023
336727447466,0.10498,-0.111816,0.874023
336727470036,0.233887,-0.254883,0.943359
336727485049,0.271973,-0.335938,0.972656
336727507658,0.195801,-0.237305,0.950195
336727530120,0.183105,-0.205078,0.956055
336727545219,0.193848,-0.210938,0.976562
336727567516,0.164551,-0.230957,0.982422
336727589974,0.146484,-0.21582,0.962891
336727604998,0.116211,-0.225586,0.990723
336727627498,0.124512,-0.227539,0.991211
336727650019,0.102051,-0.242676,0.984863
336727664994,0.101074,-0.1875,0.943359
336727687515,0.186035,-0.157715,0.913086
336727709971,0.231934,-0.241211,0.962402
336727725059,0.22168,-0.225586,0.952148
336727747492,0.203125,-0.191895,0.962402
336727770033,0.191895,-0.217285,0.974609
336727786392,0.197754,-0.236816,0.989746
336727807610,0.173828,-0.225586,0.982422
336727830159,0.131836,-0.222656,0.963379
336727846469,0.122559,-0.23291,0.955566
336727867482,0.143555,-0.225586,0.978027
336727890039,0.141602,-0.241699,0.974609
336727906437,0.128906,-0.228516,0.95752
336727927544,0.145508,-0.202148,0.95166
336727950067,0.174316,-0.208496,0.95752
336727966368,0.199707,-0.209961,0.956543
336727987606,0.20752,-0.223145,0.979004
336728009978,0.17627,-0.212891,0.975098
336728026449,0.158203,-0.208008,0.964355
336728047557,0.162598,-0.221191,0.970215
336728070020,0.166016,-0.219238,0.967285
336728086519,0.159668,-0.223633,0.959961
336728107550,0.150391,-0.213867,0.962891
336728131433,0.149414,-0.227051,0.961426
336728146433,0.162109,-0.224121,0.977539
336728167520,0.153809,-0.225098,0.968262
336728190041,0.160156,-0.213379,0.964355
336728206517,0.162598,-0.218262,0.975098
336728227503,0.165039,-0.219727,0.96875
336728250028,0.160645,-0.214355,0.965332
336728266521,0.161621,-0.208984,0.966797
336728287530,0.162598,-0.210938,0.956055
336728310005,0.163086,-0.218262,0.964355
336728326582,0.165527,-0.218262,0.960449
336728347565,0.157715,-0.217773,0.964844
336728370107,0.155273,-0.216797,0.964844
336728392586,0.15625,-0.22168,0.964844
336728407530,0.159668,-0.217285,0.96582
336728430070,0.149902,-0.224609,0.971191
336728446601,0.147949,-0.215332,0.965332
336728467602,0.165039,-0.209961,0.967773
336728490062,0.162598,-0.217773,0.967285
336728506553,0.161621,-0.203613,0.977051
336728527615,0.160645,-0.203613,0.970215
336728550104,0.158691,-0.225098,0.972656
336728566486,0.165039,-0.221191,0.98877
336728587503,0.135742,-0.213867,0.986328
336728609955,0.144531,-0.205078,0.98877
336728626497,0.134766,-0.245605,0.973633
336728647483,0.128906,-0.212402,0.963379
336728669994,0.116211,-0.182617,0.956543
336728686501,0.132812,-0.181152,0.952637
336728707615,0.159668,-0.149414,0.941406
336728730034,0.193848,-0.15332,0.94873
336728746612,0.210938,-0.181641,0.97168
336728769017,0.171875,-0.208984,0.955566
336728790113,0.164551,-0.203613,0.972168
336728806553,0.166016,-0.210938,0.975098
336728829003,0.161133,-0.253906,0.981445
336728850113,0.135742,-0.223633,0.975586
336728866462,0.135742,-0.216797,0.963867
336728889050,0.154785,-0.218262,0.984375
336728909988,0.153809,-0.20166,0.967285
336728926540,0.158203,-0.203125,0.96875
336728948998,0.154785,-0.20166,0.973633
336728970088,0.165039,-0.208008,0.981934
336728986531,0.156738,-0.192871,0.969238
336729009060,0.165039,-0.196289,0.966797
336729030104,0.170898,-0.20752,0.982422
336729046626,0.161133,-0.20459,0.979492
336729068981,0.15332,-0.195801,0.976074
336729090098,0.155762,-0.200195,0.964355
336729106512,0.178223,-0.214355,0.980957
336729128951,0.163086,-0.20459,0.973633
336729145415,0.164062,-0.190918,0.96582
336729166514,0.159668,-0.209961,0.960449
336729188987,0.172363,-0.22168,0.970703
336729205508,0.17627,-0.194824,0.979492
336729226508,0.154297,-0.195312,0.958984
336729248158,0.154297,-0.202637,0.956543
336729270689,0.161621,-0.209961,0.970703
336729285685,0.164551,-0.21875,0.98584
336729308201,0.144043,-0.193848,0.970215
336729330686,0.140137,-0.184082,0.95459
336729345689,0.156738,-0.185547,0.94873
336729368163,0.181152,-0.208496,0.975098
336729390687,0.160156,-0.206543,0.958984
336729405655,0.158203,-0.192383,0.962402
336729428197,0.165039,-0.208984,0.970703
336729450693,0.16748,-0.211426,0.977539
336729465697,0.169922,-0.199219,0.985352
336729488184,0.166016,-0.206543,0.969238
336729510713,0.157227,-0.192383,0.970215
336729525666,0.174316,-0.194824,0.970215
336729548250,0.168457,-0.190918,0.963379
336729578870,0.161133,-0.1875,0.95752
336729585677,0.164551,-0.194824,0.962402
336729608206,0.175781,-0.211914,0.95459
336729630688,0.165039,-0.208008,0.974121
336729645718,0.132812,-0.202148,0.987793
336729668221,0.125488,-0.19043,0.983887
336729690693,0.135254,-0.202637,0.983398
336729705713,0.152832,-0.204102,0.979492
336729728158,0.15918,-0.200684,0.963867
336729743968,0.162109,-0.190918,0.969238
336729765683,0.17627,-0.193848,0.969727
336729788189,0.167969,-0.19043,0.972168
336729804022,0.157715,-0.194336,0.969238
336729825649,0.151367,-0.198242,0.971191
336729848207,0.149902,-0.185059,0.973145
336729864015,0.168945,-0.203613,0.986816
336729887168,0.136719,-0.196289,0.97168
336729908210,0.143066,-0.194336,0.958008
336729923993,0.15332,-0.204102,0.975586
336729947147,0.15918,-0.207031,0.974609
336729968160,0.14209,-0.191895,0.965332
336729984025,0.146484,-0.187012,0.955078
336730007179,0.166992,-0.19873,0.963379
336730028208,0.173828,-0.202637,0.97168
336730044027,0.155273,-0.190918,0.963379
336730067178,0.146973,-0.19043,0.968262
336730088212,0.144043,-0.210449,0.986816
336730104018,0.151367,-0.215332,1.00098
336730127180,0.138184,-0.193848,0.98291
336730148322,0.134766,-0.199707,0.971191
336730164048,0.140137,-0.193359,0.975098
336730187189,0.149902,-0.214844,1.01318
336730208195,0.119629,-0.233398,1.00488
336730223958,0.111328,-0.178711,0.972168
336730247181,0.127441,-0.149414,0.945801
336730268305,0.14209,-0.140137,0.95166
336730284058,0.19043,-0.166016,0.970703
336730307154,0.172852,-0.211426,0.963867
336730328291,0.146973,-0.20752,0.956055
336730344038,0.145508,-0.213379,0.960938
336730367121,0.15625,-0.19873,0.97998
336730388311,0.135742,-0.190918,0.974609
336730404101,0.120605,-0.181152,0.973145
336730427205,0.143555,-0.208496,0.979492
336730448228,0.143066,-0.205078,0.972656
336730464042,0.146973,-0.193848,0.977051
336730487182,0.169922,-0.194336,1.00488
336730508328,0.131836,-0.183105,0.987793
336730524112,0.125,-0.185059,0.981445
336730547235,0.130371,-0.20166,0.976074
336730568283,0.141113,-0.212891,0.980957
336730584057,0.136719,-0.215332,0.972656
336730607209,0.133789,-0.191895,0.97168
336730628250,0.137207,-0.188965,0.958496
336730644083,0.157227,-0.199707,0.98291
336730666594,0.14209,-0.200684,0.963867
336730688318,0.141602,-0.197754,0.96582
336730704125,0.148926,-0.208008,0.977539
336730726565,0.147949,-0.205566,0.98291
336730748357,0.149414,-0.185547,0.986328
336730764091,0.140625,-0.207031,0.985352
336730786563,0.150879,-0.216309,0.978027
336730809707,0.152344,-0.229492,0.994141
336730824068,0.134766,-0.209961,0.956543
336730846599,0.150879,-0.189941,0.972168
336730869755,0.125488,-0.193359,0.949219
336730884081,0.146973,-0.188965,0.96875
336730906530,0.202637,-0.197754,0.996582
336730929737,0.146973,-0.212402,0.95752
336730944114,0.130859,-0.185059,0.96582
336730966567,0.137695,-0.224121,0.963867
336730989776,0.145996,-0.224121,0.986816
336731004087,0.137207,-0.208496,0.990723
336731026594,0.140625,-0.19873,0.969727
336731049737,0.152832,-0.162109,1.00537
336731064100,0.215332,-0.0585938,1.01221
336731086508,0.214355,-0.158691,0.981934
336731109752,0.175293,-0.26416,1.04102
336731130838,0.11084,-0.286621,1.04834
336731146591,0.141113,-0.196777,0.979492
336731169764,0.09375,-0.160156,0.963867
336731190874,0.0214844,-0.151855,0.946777
336731206623,0.0195312,-0.112305,0.947266
336731229736,0.0991211,-0.145996,0.973145
336731250782,0.131348,-0.216309,0.966797
336731266611,0.145508,-0.234863,0.981934
336731289750,0.122559,-0.214844,0.943359
336731310765,0.132812,-0.263672,0.937012
336731326581,0.17627,-0.290527,0.938477
336731349734,0.233887,-0.257324,0.978027
336731370828,0.20459,-0.29541,1.00195
336731386609,0.128906,-0.345703,0.935059
336731409723,0.115234,-0.259277,0.921387
336731430840,0.11084,-0.203613,0.915039
336731446596,0.135254,-0.192383,0.937012
336731469754,0.116211,-0.202637,0.942871
336731490814,0.111328,-0.189453,0.933594
336731506588,0.134766,-0.185059,0.959473
336731529789,0.16748,-0.175781,0.979004
336731558345,0.163086,-0.193359,0.975586
336731566643,0.162109,-0.187012,1.00439
336731589084,0.134277,-0.221191,0.993652
336731612214,0.144531,-0.219727,1.01025
336731626620,0.169922,-0.226074,1.01074
336731649123,0.217773,-0.230469,0.995117
336731672284,0.239746,-0.264648,0.934082
336731686597,0.23584,-0.263184,0.881348
336731709114,0.216309,-0.251465,0.885254
336731730810,0.223145,-0.222656,0.919434
336731746599,0.157715,-0.186035,0.919434
336731769119,0.125,-0.156738,0.938965
336731792296,0.123535,-0.118652,1.00391
336731806575,0.103027,-0.117676,1.06934
336731829167,0.118164,-0.105957,1.09717
336731852317,0.0229492,-0.0512695,1.04639
336731866630,0.00830078,-0.0292969,1.02344
336731889108,0.0415039,-0.0463867,1.01221
336731912253,0.0991211,-0.0830078,1.0542
336731926621,0.105957,-0.0893555,1.0542
336731949171,0.0947266,-0.0908203,1.02588
336731972303,0.0688477,-0.102539,0.993164
336731986629,0.0820312,-0.12793,1.03857
336732009160,0.0927734,-0.146973,1.04102
336732032260,0.0317383,-0.103516,0.976074
336732053259,0.0332031,-0.0805664,0.963867
336732069088,0.100098,-0.162598,0.963867
336732092294,0.209473,-0.220703,0.95752
336732113386,0.213867,-0.179199,0.927734
336732129137,0.236816,-0.152832,0.911621
336732152330,0.30957,-0.217773,0.87207
336732173360,0.270508,-0.347656,0.939941
336732189111,0.242676,-0.315918,0.982422
336732212250,0.14209,-0.180664,0.957031
336732240876,0.150391,-0.13623,0.952148
336732249118,0.125,-0.212402,0.947754
336732272329,0.124023,-0.168457,0.976074
336732293362,0.120605,-0.0942383,0.981445
336732309105,0.112793,-0.147461,0.999512
336732332313,0.138184,-0.220703,1.01221
336732353972,0.14502,-0.216797,1.03809
336732368380,0.134766,-0.177246,1.01025
336732382751,0.114258,-0.0947266,0.937988
336732405206,0.125488,-0.177246,0.924316
336732428353,0.108887,-0.186035,0.952637
336732442688,0.111328,-0.200195,0.952148
336732465168,0.14209,-0.22168,0.963867
336732488352,0.121094,-0.183105,0.998047
336732502702,0.0981445,-0.130859,1.00879
336732525161,0.0795898,-0.14209,0.993164
336732556512,0.0966797,-0.14502,0.995117
336732562703,0.143066,-0.120605,0.965332
336732585199,0.150391,-0.130859,0.981934
336732608300,0.123535,-0.17041,0.992676
336732622732,0.143555,-0.202148,0.99707
336732645310,0.164551,-0.240234,0.994629
336732668437,0.151367,-0.161133,0.97168
336732682741,0.15625,-0.148926,0.959473
336732705261,0.170898,-0.175781,0.939941
336732728409,0.168945,-0.209961,0.925293
336732742766,0.168945,-0.220703,0.959961
336732765213,0.150879,-0.222168,0.945312
336732788336,0.157715,-0.1875,0.979004
336732802718,0.151855,-0.181152,0.989746
336732825208,0.16748,-0.162109,1.02881
336732856518,0.134277,-0.189941,1.04932
336732862692,0.0957031,-0.165527,0.989258
336732885131,0.103516,-0.0893555,0.982422
336732908356,0.147949,-0.167969,0.952637
336732922650,0.160645,-0.228027,0.943359
336732945169,0.145508,-0.170898,0.947754
336732968355,0.14209,-0.241699,0.959473
336732982744,0.166504,-0.235352,0.979492
336733005222,0.131836,-0.204102,0.969727
336733028404,0.118164,-0.217285,0.968262
336733042760,0.115234,-0.224609,0.975586
336733065273,0.0991211,-0.206055,0.937012
336733088436,0.12207,-0.196777,0.964355
336733102756,0.151367,-0.209961,0.994141
336733125299,0.146973,-0.170898,1.00293
336733148449,0.130371,-0.174316,1.00195
336733162793,0.114746,-0.168457,0.980957
336733185235,0.136719,-0.169434,0.983398
336733208444,0.149902,-0.151367,0.963867
336733222700,0.166992,-0.166504,0.978516
336733245218,0.171387,-0.1875,0.973145
336733268358,0.195801,-0.180664,1.00049
336733282740,0.171387,-0.182617,1.0083
336733305196,0.151367,-0.161621,0.995605
336733328461,0.149414,-0.186035,0.987305
336733342749,0.14502,-0.210938,0.970215
336733365260,0.146484,-0.212402,0.972168
336733388434,0.149902,-0.245605,0.96582
336733402697,0.156738,-0.239746,0.987793
336733425317,0.15332,-0.217773,0.947266
336733440213,0.175781,-0.217285,0.953125
336733462753,0.181641,-0.219727,0.959961
336733485262,0.175781,-0.195312,0.968262
336733501628,0.189941,-0.18457,0.963379
336733522793,0.214355,-0.210938,1.00195
336733545242,0.213379,-0.16748,0.983398
336733561663,0.228516,-0.114258,1.03174
336733582780,0.26123,-0.121582,1.12402
336733605221,0.253906,-0.0634766,1.22803
336733628410,0.209473,0.0463867,1.33301
336733642791,0.165039,0.14502,1.54248
336733665208,0.0688477,0.249512,1.35059
336733687799,0.0952148,0.124512,1.375
336733702714,0.112793,-0.0610352,1.33789
336733725287,0.0600586,-0.127441,1.23535
336733747777,0.00976562,0.0249023,0.930176
336733762820,0.0107422,-0.0629883,0.790527
336733785278,0.0825195,-0.290039,0.803711
336733807761,0.0576172,-0.463867,0.796387
336733822695,-0.0234375,-0.409668,0.806152
336733845314,-0.119629,-0.304199,0.803711
336733867831,-0.171875,-0.361816,0.747559
336733882780,-0.23291,-0.442871,0.821289
336733905262,-0.34668,-0.462891,0.820801
336733927904,-0.325195,-0.337891,0.828125
336733942727,-0.492188,-0.322754,0.743652
336733965264,-0.674316,-0.359863,0.742188
336733987813,-0.681152,-0.380371,0.585938
336734002758,-0.637695,-0.27832,0.598145
336734025269,-0.649414,-0.218262,0.640625
336734047795,-0.682129,-0.148926,0.585449
336734062755,-0.604004,-0.0463867,0.532715
336734085318,-0.502441,0.0854492,0.536133
336734107827,-0.386719,0.11377,0.568359
336734122750,-0.358887,0.195312,0.619141
336734145291,-0.348633,0.131836,0.532715
336734167853,-0.20459,0.182129,0.608887
336734182928,-0.0297852,0.14502,0.727051
336734205210,0.0200195,0.204102,0.790039
336734227758,-0.050293,0.125,0.789551
336734242804,-0.0429688,0.0834961,0.781738
336734265275,-0.0307617,-0.0517578,0.868652
336734287779,-0.145508,-0.200195,0.86377
336734302737,-0.280762,-0.159668,0.841309
336734325364,-0.29248,-0.296387,1.01416
336734347826,-0.293457,-0.450684,1.07275
336734362858,-0.465332,-0.399414,1.30127
336734385254,-0.568359,-0.280762,1.34131
336734407796,-0.439941,-0.197754,1.41309
336734424207,-0.200684,0.000488281,1.2124
336734445323,-0.183594,-0.117676,1.14941
336734467814,-0.341309,-0.605957,1.16504
336734484239,-0.128906,-0.865234,1.03613
336734505248,0.246582,-0.612793,1.19727
336734527778,0.101562,-0.342773,1.06494
336734544271,0.046875,-0.205078,0.957031
336734565314,0.181152,-0.0947266,1.12646
336734587832,0.187988,-0.0141602,1.31934
336734604207,0.00683594,0.0712891,1.44238
336734625344,-0.108398,0.0126953,1.44678
336734647795,-0.0922852,-0.167969,1.39258
336734664207,-0.0493164,-0.266113,1.27979
336734685282,0.0180664,-0.402344,1.12354
336734707853,-0.103516,-0.553223,1.09229
336734724266,-0.293945,-0.525879,1.15723
336734745316,-0.20459,-0.579102,1.09814
336734767827,-0.0795898,-0.571289,0.944336
336734784263,-0.0195312,-0.425293,0.831543
336734805315,-0.0893555,-0.416016,0.76123
336734835964,-0.107422,-0.337891,0.654297
336734850303,-0.11377,-0.322754,0.538086
336734865341,-0.146973,-0.283691,0.388184
336734887841,-0.0327148,-0.0913086,0.38623
336734905742,0.0585938,-0.0600586,0.496094
336734925333,-0.0556641,-0.0146484,0.55127
336734947823,0.15625,-0.428223,1.0459
336734964258,0.0771484,-0.474609,0.806641
336734985338,-0.252441,0.769531,0.496582
336735007854,-0.373535,0.138672,0.482422
336735024279,-0.483887,-0.255859,0.64209
336735045360,-0.662109,-0.135254,0.76416
336735067809,-0.740234,0.00390625,0.801758
336735084238,-0.865234,-0.0151367,0.910645
336735105260,-0.943359,-0.0380859,1.00537
336735127802,-0.958984,-0.189453,1.18066
336735144273,-0.777344,-0.276367,1.25195
336735165331,-0.347656,-0.396973,1.12256
336735187819,-0.181152,-0.403809,0.98877
336735204260,-0.217773,-0.699219,1.07129
336735225331,-0.148438,-0.736816,1.09375
336735241782,-0.168945,-0.591309,1.01465
336735271729,-0.193359,-0.337891,0.938477
336735285332,-0.127441,-0.166016,0.856445
336735301708,0.193848,-0.308105,1.05029
336735324294,0.16748,-0.58252,1.14355
336735345330,0.00830078,0.310059,0.73584
336735361778,-0.0180664,1.00781,0.564453
336735384266,-0.078125,0.105957,0.771484
336735406714,-0.176758,-0.361328,0.875
336735429225,-0.237305,-0.357422,0.859863
336735444236,-0.28125,-0.265137,0.913574
336735468227,-0.125488,-0.296875,1.03271
336735488511,-0.177246,-0.366699,1.26807
336735504854,-0.397949,-0.388672,1.14746
336735526623,0.0839844,-0.156738,0.912109
336735549926,0.455078,-0.369629,0.738281
336735563536,0.0830078,-0.499512,0.807129
336735585768,0.171387,-0.616699,0.836914
336735608525,0.385742,-0.578125,0.844238
336735623507,0.261719,-0.637695,0.907715
336735646027,-0.00976562,-0.554688,0.570801
336735668529,0.0717773,-0.304199,0.691895
336735683540,0.180664,-0.143066,0.84375
336735706020,0.136719,-0.0751953,0.986816
336735728561,0.133301,-0.0473633,1.0708
336735743539,0.146973,0.00927734,1.17969
336735765999,0.133789,-0.141113,1.21924
336735788514,0.267578,-0.28418,1.34131
336735803491,0.390625,-0.398438,1.35596
336735833510,0.320801,-0.257324,1.30566
336735848512,0.116211,-0.151855,0.730469
336735863546,0.430176,-0.661133,0.918945
336735887557,0.688965,-0.987305,1.0918
336735908513,0.40918,-0.818359,1.20801
336735923533,0.289551,-0.33252,1.20361
336735946022,0.163574,-0.224121,1.05322
336735968511,0.019043,-0.465332,1.02441
336735983460,-0.0498047,-0.51416,1.03027
336736005971,-0.0732422,-0.372559,0.984375
336736028510,-0.104492,-0.270508,0.943359
336736043326,-0.118652,-0.232422,0.944336
336736065984,-0.136719,-0.175781,0.891113
336736088460,-0.12793,-0.126465,0.884277
336736103544,-0.107422,-0.134277,0.847656
336736133601,-0.00537109,-0.0957031,0.830078
336736149957,0.0947266,-0.151855,0.725586
336736163617,-0.271973,-0.206055,0.564453
336736186049,-0.361816,-0.186523,0.649902
336736201760,-0.267578,-0.0932617,0.56543
336736225036,-0.288574,-0.222168,0.666992
336736246032,-0.336914,-0.433105,0.782227
336736261849,-0.363281,-0.475098,0.914551
336736283596,-0.366699,-0.350098,0.927734
336736306108,-0.335938,-0.230469,0.839844
336736321783,-0.352051,-0.35791,0.708496
336736343534,-0.174316,-0.351074,0.825684
336736366009,-0.235352,-0.636719,1.0083
336736381790,-0.291504,-0.671875,0.962891
336736403538,-0.26416,-0.472656,0.92627
336736426071,-0.279297,-0.350586,0.909668
336736441782,-0.273926,-0.26709,0.874023
336736464946,-0.20459,-0.244141,0.919434
336736486064,-0.137207,-0.142578,0.86084
336736501811,0.00683594,-0.0634766,1.06348
336736539181,-0.0966797,0.166992,0.986816
336736546049,-0.116211,0.104492,0.926758
336736561771,-0.191406,-0.0610352,0.955078
336736584966,-0.216309,-0.157715,0.968262
336736606061,-0.231445,-0.229492,0.992188
336736621836,-0.120605,-0.230957,0.96875
336736644938,-0.0649414,-0.30957,0.988281
336736666028,-0.0976562,-0.325195,0.955078
336736681856,-0.100098,-0.306641,0.938965
336736705032,0.065918,-0.338379,0.938965
336736726077,0.226074,-0.433594,0.959473
336736741827,0.208984,-0.438477,0.91748
336736764985,0.168945,-0.460938,0.820801
336736786072,0.21582,-0.551758,0.836914
336736801853,0.214844,-0.570312,0.801758
336736831039,0.200195,-0.559082,0.787598
336736846075,0.166016,-0.425781,0.729492
336736861824,0.217285,-0.266602,0.75
336736884998,0.26123,-0.258789,0.888672
336736906075,0.348145,-0.287598,1.00537
336736921829,0.416016,-0.212402,1.16699
336736945025,0.444824,0.0532227,1.30811
336736967502,0.373047,0.0771484,1.27783
336736981898,0.264648,-0.0473633,1.25439
336737005005,0.425293,-0.478027,1.24902
336737026131,0.512207,-0.607422,1.24512
336737041834,0.51709,-0.460938,1.28516
336737064992,0.465332,-0.368164,1.33105
336737087578,0.380371,-0.34375,1.31738
336737108609,0.313477,-0.3125,1.29346
336737124987,0.250488,-0.280762,1.27539
336737146080,0.268066,-0.296875,1.22363
336737161804,0.271973,-0.373535,1.19141
336737184955,0.181641,-0.422852,1.12256
336737206127,0.106445,-0.404297,1.10107
336737221867,0.0859375,-0.420898,1.05469
336737244327,-0.00878906,-0.522949,0.984863
336737266096,-0.0825195,-0.547363,0.916504
336737281898,-0.185547,-0.535645,0.861816
336737304338,-0.23877,-0.513184,0.804688
336737326076,-0.207031,-0.499512,0.748047
336737341848,-0.299316,-0.482422,0.699707
336737364340,-0.401855,-0.396973,0.662109
336737386092,-0.431152,-0.308594,0.618164
336737401864,-0.431152,-0.227051,0.599609
336737424329,-0.459473,-0.149902,0.583008
336737447598,-0.477051,-0.0952148,0.580078
336737461860,-0.490234,-0.0454102,0.560547
336737484356,-0.44873,0.00537109,0.574707
336737515044,-0.413086,0.0664062,0.557129
336737521855,-0.400879,0.107422,0.572266
336737552562,-0.228027,0.271973,0.527344
336737567582,-0.181152,0.236816,0.547363
336737588617,-0.102051,0.256348,0.601074
336737604372,-0.0654297,0.268555,0.625488
336737627563,0.0620117,0.297852,0.561035
336737648613,0.220215,0.266113,0.632324
336737664326,0.320801,0.42334,0.60791
336737687596,0.39502,0.46875,0.544434
336737708639,0.394043,0.407715,0.634277
336737724396,0.494629,0.373047,0.73877
336737747555,0.486328,0.517578,0.793457
336737776091,0.621582,0.675781,0.77832
336737784407,0.925293,0.736328,0.649414
336737807530,0.918945,0.671387,0.754883
336737828553,0.854004,0.739258,0.757324
336737844381,0.814453,0.77832,0.776367
336737867558,0.745605,0.731445,0.784668
336737888659,0.629883,0.697266,0.820312
336737904399,0.60498,0.702148,0.807129
336737927549,0.59082,0.68457,0.768066
336737948552,0.622559,0.655762,0.757324
336737964412,0.558594,0.561523,0.691406
336737987610,0.404785,0.425781,0.615234
336738010075,0.318359,0.453125,0.624023
336738024329,0.277832,0.453125,0.637695
336738047556,0.23877,0.4375,0.645996
336738068624,0.158203,0.397949,0.641113
336738084388,0.114746,0.356445,0.633789
336738107602,0.0585938,0.326172,0.665039
336738128531,0.0249023,0.280273,0.693848
336738144347,0.00439453,0.255859,0.749512
336738167508,-0.0454102,0.216797,0.825684
336738188588,-0.0913086,0.209961,0.84375
336738204333,-0.0927734,0.17334,0.858398
336738226827,-0.0458984,0.115234,0.933594
336738248559,-0.0405273,-0.0175781,0.942383
336738264332,-0.0297852,-0.090332,0.971191
336738286830,-0.0219727,-0.074707,0.972656
336738308585,-0.0268555,-0.0112305,0.924316
336738324331,0.034668,-0.0151367,0.859863
336738346864,0.235352,-0.0703125,0.839355
336738368611,0.408691,-0.26416,0.860352
336738384333,0.390137,-0.285156,0.873535
336738406803,0.37793,-0.224609,0.805664
336738430020,0.481934,-0.174805,0.841797
336738444356,0.561523,-0.205078,0.939941
336738466857,0.526367,-0.143066,1.06494
336738498953,0.494141,-0.163574,1.08643
336738504537,0.529785,-0.195801,1.0918
336738526832,0.540527,-0.244629,1.07568
336738550025,0.54248,-0.29834,1.08594
336738571153,0.552246,-0.292969,1.13135
336738586185,0.525879,-0.264648,1.17969
336738600403,0.51416,-0.218262,1.16406
336738622997,0.525879,-0.214355,1.11084
336738646148,0.509766,-0.221191,1.10059
336738660431,0.504883,-0.234375,1.07178
336738682925,0.509277,-0.241211,1.04932
336738706123,0.48877,-0.260742,1.02783
336738720462,0.48291,-0.271973,1.01416
336738742919,0.453125,-0.289551,1.01465
336738766063,0.425293,-0.307617,0.992676
336738780412,0.414062,-0.313965,0.986816
336738802934,0.371094,-0.314941,0.999512
336738826104,0.310547,-0.315918,0.973633
336738840437,0.242188,-0.283691,0.966797
336738862915,0.168945,-0.246094,0.935547
336738886189,0.135254,-0.161621,0.908691
336738901824,0.10791,-0.143066,0.879883
336738922942,0.0717773,-0.117676,0.874512
336738946144,0.0566406,-0.0429688,0.838867
336738960420,0.0439453,0.0229492,0.805176
336738982971,0.0478516,0.0581055,0.812988
336739014219,0.0732422,0.0615234,0.806152
336739020453,0.0913086,0.0908203,0.821777
336739042933,0.0981445,0.0878906,0.84668
336739066084,0.0820312,0.116211,0.85791
336739080445,0.0874023,0.19043,0.86084
336739103575,0.110352,0.227539,0.880859
336739126152,0.128906,0.234375,0.892578
336739140429,0.137207,0.257812,0.912598
336739165058,0.167969,0.284668,0.942383
336739186190,0.198242,0.289062,0.947266
336739200510,0.235352,0.331055,0.951172
336739223637,0.230469,0.322754,0.935059
336739246175,0.234375,0.331055,0.945801
336739260442,0.241211,0.328613,0.927734
336739283608,0.234375,0.308594,0.926758
336739306115,0.205078,0.264648,0.90918
336739320501,0.180664,0.193359,0.895996
336739342965,0.183105,0.0917969,0.911133
336739366112,0.157227,-0.00878906,0.891113
336739382474,0.150391,-0.0947266,0.901855
336739402961,0.10791,-0.137207,0.87207
336739426221,0.0444336,-0.147949,0.882812
336739440504,0.0136719,-0.0947266,0.942871
336739463036,0.0317383,-0.118652,0.977051
336739486139,0.0244141,-0.157227,1.00244
336739500490,-0.0341797,-0.192871,0.984863
336739522924,-0.0517578,-0.176758,0.936035
336739537973,-0.0253906,-0.1875,0.918457
336739560444,0.0292969,-0.174316,0.961426
336739582969,0.0473633,-0.123047,0.992188
336739598053,0.0712891,-0.074707,1.03906
336739620473,0.0957031,-0.0976562,1.07568
336739642990,0.115723,-0.0947266,1.07373
336739658034,0.150391,-0.0942383,1.1001
336739680495,0.144043,-0.123047,1.08008
336739703099,0.159668,-0.15918,1.09668
336739718045,0.162109,-0.207031,1.09033
336739748643,0.169922,-0.237793,1.05908
336739762967,0.146973,-0.257812,1.01025
336739778025,0.150879,-0.291504,0.962891
336739800473,0.160645,-0.304688,0.978027
336739822988,0.153809,-0.32666,0.987793
336739838025,0.128906,-0.34668,0.986816
336739860546,0.13623,-0.403809,1.03418
336739882992,0.103516,-0.289062,1.09473
336739897970,0.0917969,-0.168945,1.04053
336739920485,0.0859375,-0.162598,1.08398
336739943034,0.0771484,-0.272461,1.07812
336739958006,0.0507812,-0.336426,1.04199
336739980544,0.0131836,-0.350586,0.978027
336740003037,-0.00195312,-0.402832,0.942871
336740017955,-0.00292969,-0.405273,0.931152
336740040543,0.0522461,-0.378418,0.89502
336740063054,0.0869141,-0.347656,0.885742
336740077981,0.074707,-0.359375,0.911621
336740100621,0.0708008,-0.34668,0.906738
336740122946,0.0961914,-0.34375,0.944336
336740145451,0.0493164,-0.350586,0.937988
336740160535,0.0371094,-0.367676,0.981445
336740183073,0.043457,-0.320801,0.972656
336740199534,0.0532227,-0.350098,0.957031
336740220524,0.0458984,-0.408203,0.936035
336740243007,0.078125,-0.379395,0.931641
336740259413,0.102539,-0.364746,0.974121
336740280575,0.0566406,-0.397949,0.946289
336740304504,0.0107422,-0.383789,0.913574
336740319473,0.0161133,-0.388184,0.901367
336740340532,0.0527344,-0.388184,0.925781
336740363030,0.0786133,-0.359375,0.920898
336740379463,0.0625,-0.327637,0.962402
336740400478,0.0810547,-0.312988,0.928711
336740423010,0.104492,-0.365723,0.959473
336740439544,0.0708008,-0.395508,0.92627
336740460555,0.0366211,-0.412109,0.924805
336740482997,0.015625,-0.389648,0.919922
336740499498,0.0380859,-0.406738,0.932617
336740520534,0.0458984,-0.39502,0.935059
336740543018,0.0546875,-0.369629,0.932129
336740559433,0.0644531,-0.36377,0.934082
336740580536,0.0522461,-0.356445,0.945801
336740603026,0.0585938,-0.376465,0.930176
336740619410,0.0390625,-0.412109,0.913086
336740640472,0.0288086,-0.395996,0.924805
336740662978,0.0410156,-0.374512,0.927246
336740679521,0.0703125,-0.369629,0.929688
336740700564,0.0615234,-0.395996,0.919434
