timestamp,emg1,emg2,emg3,emg4,emg5,emg6,emg7,emg8
336682232574,0,7,-2,-6,1,0,1,0
336682232574,-2,-5,0,4,6,0,-2,-1
336682233446,-1,1,-1,-2,-3,-2,-4,-1
336682233446,-1,-1,-4,-3,-2,-2,-2,0
336682237522,0,-1,1,-1,-5,-2,0,-1
336682237522,-1,6,6,3,-1,0,0,-1
336682239990,0,-2,-17,-3,-2,-1,-2,0
336682239990,-3,-8,4,-1,0,0,-2,-3
336682243210,1,-5,-6,-3,-2,-2,-1,-1
336682243210,3,28,6,2,0,0,2,-2
336682254782,-3,0,-1,-1,1,-1,1,-1
336682254782,2,3,11,0,-2,2,0,1
336682258248,-2,-12,-5,-2,2,3,-1,-2
336682258248,2,-11,-5,-1,-5,-2,0,2
336682274768,-1,3,9,2,1,-2,0,-3
336682274768,-3,0,-16,-3,0,2,0,-1
336682281964,-2,1,4,1,-1,-2,-2,-1
336682281964,-2,-5,-7,2,-2,-1,-4,0
336682296937,-2,-2,11,-6,-1,-1,0,-2
336682296937,1,-2,1,2,0,0,1,0
336682303380,1,0,-6,-1,1,0,0,-2
336682303380,-3,-8,-3,-6,-5,-2,-2,-3
336682350769,-4,-13,-4,-5,-3,0,0,1
336682350769,2,14,7,0,-1,-2,-2,0
336682351554,-5,-2,-2,0,-1,-1,-2,-2
336682351554,-3,-4,-3,0,-2,-1,-2,-2
336682352334,-1,-8,-13,1,1,1,2,0
336682352334,1,-8,11,2,3,4,0,-1
336682353070,0,15,-6,-7,-4,-2,1,0
336682353070,2,0,2,4,2,-2,0,0
336682363072,-1,3,3,-2,1,-2,-1,-1
336682363072,-4,-11,-12,-3,-3,-2,2,0
336682371335,-1,-8,5,0,2,3,0,-4
336682371335,-5,-27,-4,-2,0,1,0,-1
336682378170,3,21,8,3,-3,0,-3,-1
336682378170,-2,10,-28,-16,-5,-3,-3,-1
336682393780,0,-7,10,10,0,-2,-6,-1
336682393780,-1,12,0,-12,-1,-4,-2,0
336682400577,0,-2,3,4,2,-2,-2,-1
336682400577,-2,-12,2,9,0,1,-4,-1
336682408835,-1,-5,-6,-6,6,1,2,-2
336682408835,0,13,3,3,-1,-1,1,0
336682423021,-5,-11,0,-5,-4,0,-1,0
336682423021,-2,-6,3,-2,-1,-3,-3,-2
336682431269,1,15,5,1,-1,0,-2,0
336682431269,1,7,0,5,4,0,1,0
336682438082,-3,-10,-5,-8,-7,-2,0,1
336682438082,0,-4,10,8,5,4,3,3
336682453544,-6,4,-8,-7,2,-2,-1,-2
336682453544,4,-4,0,-2,-6,-1,1,-3
336682462048,2,2,-1,-1,0,-1,1,-1
336682462048,-2,6,5,1,-3,-2,0,0
336682468079,1,4,-1,3,2,3,0,1
336682468079,1,-1,-3,-2,-4,-1,0,1
336682483091,0,2,0,-1,4,0,-2,-3
336682483091,-2,3,4,3,3,-4,1,0
336682491364,0,-10,2,-2,-2,-2,0,0
336682491364,-4,-2,-6,2,-1,-1,-1,-1
336682505580,2,8,4,3,7,4,1,1
336682505580,-2,-2,-4,-2,-2,-1,-4,-3
336682513772,-1,-2,-1,-2,-6,-3,1,-2
336682513772,-4,-4,1,-2,0,1,-3,0
336682520658,-1,-6,-1,8,5,1,-1,1
336682520658,2,11,2,-10,-2,4,-2,-2
336682528076,-3,-12,6,4,-2,-4,-2,-2
336682528076,-2,-17,-15,0,3,-1,-1,-2
336682543125,0,1,-3,-5,-4,-2,-1,-2
336682543125,-2,-3,-4,4,2,1,1,1
336682551263,1,-6,3,-1,-3,0,0,0
336682551263,3,5,2,-1,3,-1,1,-1
336682558095,1,0,3,0,-2,-1,-2,-1
336682558095,-1,-28,-12,-3,-4,-1,-1,-2
336682573807,1,20,-3,2,-1,-1,0,1
336682573807,0,0,9,-4,-3,-3,-3,-1
336682580620,-1,0,-1,-1,-2,-2,1,0
336682580620,-1,3,1,0,-1,2,1,-3
336682595621,-1,-20,-8,0,1,1,0,2
336682595621,-1,18,16,1,-3,2,-1,-1
336682603054,-7,1,-8,-4,-1,-4,-2,-4
336682603054,-1,-7,2,-6,-8,-7,-4,2
336682612093,3,6,-3,4,7,2,-1,0
336682612093,-3,1,-3,0,-2,1,2,0
336682618124,0,-7,8,1,-1,-2,1,0
336682618124,-1,-2,-1,0,1,-2,2,-1
336682634607,-2,-5,-3,-7,-5,-2,-2,-1
336682634607,2,-1,-1,7,4,1,-1,1
336682640599,1,12,7,0,-7,0,1,-3
336682640599,-1,16,-8,-9,-2,0,1,-1
336682655630,1,-1,7,5,1,-1,0,1
336682655630,-2,-21,-10,-2,1,0,0,0
336682663122,3,12,-6,-5,1,1,-1,-1
336682663122,1,14,11,4,3,1,0,0
336682680262,-1,-1,-3,-1,1,-2,-1,-1
336682680262,-2,-3,-3,-6,-4,0,-3,0
336682681073,1,1,3,7,6,0,-2,0
336682681073,0,-7,0,-6,-4,0,1,0
336682694576,-1,-2,-2,-2,0,0,1,-2
336682694576,-1,2,0,-1,0,-1,0,1
336682700621,-1,-5,-1,-3,-7,-2,-2,1
336682700621,0,6,-7,4,1,-2,0,-1
336682715660,0,-2,0,2,0,0,-1,1
336682715660,1,20,7,-2,3,-2,-1,-1
336682723122,-1,-2,5,1,0,0,-1,0
336682723122,0,-23,-5,9,1,2,-1,0
336682732053,2,6,-10,-23,-7,-2,0,0
336682732053,1,-5,5,6,-6,-3,-2,0
336682738173,0,-4,-4,0,3,2,2,-2
336682738173,1,3,7,5,0,0,-1,-1
336682754572,-6,-10,-1,2,4,2,-1,-1
336682754572,0,16,0,-4,-2,-1,-2,0
336682760635,-3,-2,-2,-1,-4,-2,-1,1
336682760635,0,-4,0,4,3,-2,0,-2
336682775627,0,1,5,-2,-1,0,0,-2
336682775627,-2,-6,-4,-6,-2,0,-2,-1
336682783140,-4,-6,-4,4,3,0,1,1
336682783140,3,18,8,-4,-3,1,0,0
336682792077,0,-8,2,5,-2,-2,-2,0
336682792077,-2,-3,-2,1,2,0,0,-2
336682798074,-1,6,3,-9,-2,1,-1,-2
336682798074,-2,-6,-7,-1,1,0,-1,0
336682814548,-2,-6,3,8,0,-1,-1,0
336682814548,1,-11,-10,-5,-2,2,1,-2
336682820643,0,-1,-6,-7,-1,-3,-2,0
336682820643,-3,-3,-3,3,3,2,1,1
336682835615,3,8,1,-5,-6,0,0,-1
336682835615,-4,-16,-9,5,3,-1,2,-2
336682843080,3,-7,2,1,-4,-2,1,2
336682843080,1,1,1,-8,0,-1,1,0
336682852079,0,-1,-3,4,1,0,-1,-1
336682852079,-3,3,2,-3,-2,1,-2,1
336682858109,0,-6,-7,-2,-2,0,-1,-3
336682858109,0,-6,4,3,2,2,0,-1
336682874574,-1,-8,2,-3,-2,1,0,-2
336682874574,-2,2,4,0,0,0,-2,-3
336682880603,0,16,3,-2,-1,-1,0,-2
336682880603,-1,-4,-4,0,-1,0,-2,2
336682895595,-3,-5,-2,-3,-1,-4,-1,-2
336682895595,3,2,5,5,-3,-1,-2,0
336682903107,-5,-10,-7,0,2,1,-2,-1
336682903107,1,-9,-1,-5,-2,-3,0,2
336682912149,-5,2,-5,-1,1,0,2,0
336682912149,3,4,2,-2,-2,-1,-1,0
336682918106,-1,-8,-1,2,1,-1,-1,-1
336682918106,0,18,-2,-2,-2,-2,0,-2
336682934638,1,5,2,-1,-5,0,-1,-2
336682934638,0,1,-10,-5,-1,-1,-2,0
336682940619,-3,-8,16,0,3,-4,0,-1
336682940619,0,3,1,0,-5,-5,-2,-1
336682955572,-1,7,5,8,0,0,2,1
336682955572,0,3,-7,-9,0,0,2,-1
336682963069,1,8,8,3,-1,1,0,0
336682963069,-1,3,1,-2,1,2,0,-2
336682972054,-5,-24,-11,-3,-2,0,-1,-2
336682972054,-3,-4,-5,-3,-1,-3,-2,-2
336682978084,-2,-12,-5,0,-2,0,-1,1
336682978084,-1,6,1,4,6,2,-2,-1
336682994596,2,1,-2,-5,-2,-2,-1,-1
336682994596,-1,-13,2,2,2,-2,0,-1
336683000635,-1,6,-7,-5,-3,-2,-2,-2
336683000635,-3,-15,0,-3,-4,-3,-2,-2
336683015622,-1,-2,-1,-2,0,2,-1,1
336683015622,1,1,-2,-4,0,0,2,0
336683023136,1,-5,1,6,1,-2,0,0
336683023136,-1,6,2,-2,-3,-1,-1,-2
336683032077,2,8,9,0,-3,0,-3,-2
336683032077,0,-3,-9,7,-1,-2,-2,0
336683038224,0,-4,-5,-8,0,3,-4,-1
336683038224,1,-7,2,-2,2,-3,0,-3
336683054568,-2,3,0,3,0,0,0,-1
336683054568,-3,4,7,5,-2,0,-1,0
336683060528,-2,8,-3,7,0,-1,-1,-2
336683060528,0,-5,-1,-8,-1,0,1,1
336683075693,1,9,3,-6,0,-1,-1,0
336683075693,0,-3,7,2,3,4,0,0
336683083109,-1,1,-2,-3,-2,-1,-1,1
336683083109,0,-9,2,2,-3,-2,-2,-4
336683092092,0,3,-6,3,0,-1,2,0
336683092092,-2,-5,-4,-9,-3,-1,-1,-1
336683098114,-1,1,6,5,0,-1,0,-2
336683098114,-1,7,-11,-3,-1,0,-1,-1
336683114576,-6,-31,-6,3,3,3,-2,-1
336683114576,-1,4,5,-1,-1,-1,-1,-2
336683120709,1,-7,-4,-3,-4,-1,0,0
336683120709,-1,1,-3,-2,-1,-1,0,2
336683135641,1,5,3,-2,1,-3,-2,1
336683135641,0,5,3,0,1,1,0,1
336683143154,-2,-6,0,4,-2,0,1,-2
336683143154,-1,-2,1,1,1,2,1,0
336683158712,-2,-3,1,2,-4,-2,0,1
336683158712,-3,11,-13,-8,-1,-3,-2,-1
336683159548,2,3,-11,-6,0,-2,-1,-1
336683159548,-3,-4,0,1,2,3,-1,-1
336683174647,1,4,2,-5,-5,-1,0,1
336683174647,3,-4,11,2,-3,-2,0,1
336683180553,-1,-10,-6,2,-2,-1,-2,-1
336683180553,-1,-2,-1,-5,5,2,2,0
336683195619,-2,6,-2,0,3,-1,0,0
336683195619,-1,-3,3,3,-2,-1,-1,-2
336683203033,0,1,-2,-5,-1,-1,1,0
336683203033,2,4,2,0,-1,-1,-2,0
336683212147,2,10,1,-1,-1,0,-2,-3
336683212147,-5,-19,-2,-4,-2,-1,-1,-4
336683218171,-2,3,2,3,0,1,1,0
336683218171,-1,-4,0,-1,-2,-4,2,3
336683241312,-2,0,-1,-2,-1,0,0,-2
336683241312,0,0,5,0,1,-2,-5,2
336683242060,1,-2,-13,-1,0,0,-3,-1
336683242060,-1,-4,7,2,0,1,-1,-1
336683255569,1,2,5,-2,-2,0,2,0
336683255569,2,4,3,-1,-2,-1,0,0
336683263087,1,3,-7,0,2,3,-4,0
336683263087,-4,1,-18,-15,-9,-5,1,0
336683272087,2,5,3,-2,0,-3,-1,0
336683272087,-2,3,-5,2,-1,0,-3,-2
336683285632,-1,-4,5,-6,-4,-5,-1,0
336683285632,-3,-4,-1,4,1,-1,-5,-2
336683294611,1,-2,-3,-2,1,-1,-1,-1
336683294611,-1,-2,-6,3,0,-2,1,-1
336683300560,0,2,2,-5,-2,-1,0,1
336683300560,0,0,3,6,-3,0,-2,0
336683315632,-1,7,-3,-1,0,1,-1,-2
336683315632,-2,-1,-7,-1,1,-2,-2,-1
336683323161,0,-7,3,-1,-1,0,4,-2
336683323161,2,8,3,1,-1,2,-1,-1
336683338062,0,4,7,0,0,1,0,0
336683338062,0,6,-5,2,1,0,1,0
336683345557,-7,-3,-4,-2,-2,1,-1,-1
336683345557,-3,2,4,0,-1,-1,-3,-1
336683361264,-1,-6,-6,-2,0,-2,-2,-1
336683361264,-1,5,13,1,0,4,3,0
336683362032,-2,-9,-3,0,3,2,-1,0
336683362032,-1,-4,2,5,-2,0,0,-2
336683375604,0,10,1,-5,-1,-1,1,-1
336683375604,-1,-3,-12,-11,-5,-1,2,1
336683383168,1,2,2,4,0,-1,0,-1
336683383168,-3,-5,1,2,3,0,3,-2
336683398107,-1,1,-3,3,2,0,-2,-2
336683398107,0,-5,-1,1,-2,0,2,-1
336683405592,2,8,4,-2,-2,1,-1,0
336683405592,0,-5,-2,-3,3,-1,-3,-1
336683421335,-2,-14,-4,1,-2,-1,-2,-2
336683421335,2,1,7,5,1,-2,-1,1
336683422082,-1,-10,3,0,-2,-1,-2,0
336683422082,-1,-1,-3,-4,-5,-3,1,0
336683435652,-4,-7,-15,1,1,2,-3,-2
336683435652,-3,-9,15,-2,-1,-3,-3,-2
336683443132,2,-1,1,5,1,-3,-2,-2
336683443132,0,6,2,-6,0,3,1,1
336683458106,-1,-16,-11,0,1,-2,1,1
336683458106,0,-2,-3,-2,-3,0,0,0
336683465653,0,2,14,7,1,-1,1,0
336683465653,-1,-13,-16,-10,-5,-1,-1,0
336683481271,0,1,5,0,4,-2,-1,-1
336683481271,-1,4,3,2,0,1,-3,-2
336683482054,-1,-3,-2,-3,-1,-2,1,0
336683482054,0,6,2,5,-1,0,0,0
336683495634,2,4,7,-3,-5,-4,-1,0
336683495634,-4,5,3,4,3,1,0,-3
336683503130,-2,2,-9,-14,4,1,0,0
336683503130,1,-6,4,5,2,1,0,-2
336683518218,-2,7,0,-1,-2,-2,-1,-2
336683518218,-1,4,-2,-1,-2,-1,-2,0
336683525636,2,7,-6,2,-1,3,1,-1
336683525636,-2,-17,9,0,5,-1,-1,-1
336683541321,0,2,-4,-2,1,2,0,0
336683541321,-2,-6,-7,-3,-1,-3,-1,0
336683542065,-2,6,-4,4,-2,-2,-1,-3
336683542065,0,1,-3,-1,-3,-4,1,-2
336683555682,-1,-9,3,2,1,4,-1,-1
336683555682,2,-6,4,0,4,0,1,1
336683563157,1,-19,-4,-2,-2,0,-1,-1
336683563157,6,41,7,3,-4,-5,-1,1
336683578094,-1,-12,4,2,2,0,2,2
336683578094,2,1,-18,-8,-2,-1,1,0
336683585673,0,-10,5,6,1,-1,0,-1
336683585673,2,-2,-1,-1,4,1,-2,0
336683601299,-3,1,-6,-12,-8,-1,1,0
336683601299,2,-3,0,2,4,-3,-2,2
336683602058,-1,2,3,-1,-2,-3,1,-1
336683602058,-1,-8,-5,0,-2,-3,-1,-1
336683615675,1,5,3,-3,-2,-1,1,-1
336683615675,-3,-3,-3,-2,-3,1,-3,0
336683623101,-2,3,-5,1,3,2,-3,2
336683623101,-1,-2,-1,4,0,0,-1,-1
336683638146,1,12,5,1,1,-1,0,0
336683638146,2,-2,-4,-5,-2,1,2,-1
336683645655,-1,12,14,0,-4,-2,2,-1
336683645655,-2,12,2,6,2,3,0,0
336683661385,2,3,-6,-13,-3,-3,-2,-1
336683661385,1,-2,-9,5,-2,-1,-1,-1
336683662071,0,0,8,-6,-4,-1,-2,-1
336683662071,-4,-17,-19,-3,-2,0,-1,1
336683675627,1,-3,12,3,-4,-3,-1,-1
336683675627,-2,16,12,7,3,-1,1,-1
336683683216,-2,-3,-4,-3,-3,-4,-2,-3
336683683216,-4,-11,-14,-10,-5,-4,-1,-1
336683698131,3,-6,3,7,1,-2,2,-2
336683698131,-2,-16,-2,-4,-5,-4,-5,-2
336683705556,1,3,-2,-3,-4,-2,-3,-1
336683705556,0,1,11,3,0,-4,-2,1
336683721054,-2,0,-2,1,4,4,1,-1
336683721054,-3,-5,2,-4,0,-1,1,-1
336683728852,-3,-6,-4,3,1,1,1,-1
336683728852,2,-14,6,1,-2,-4,-1,0
336683735690,-3,0,-9,-6,-2,-2,-1,-3
336683735690,1,3,4,6,2,2,-1,0
336683751362,-2,-5,2,2,2,0,0,0
336683751362,0,8,-4,-3,-3,0,1,-1
336683758155,1,6,-1,4,-3,-1,-2,1
336683758155,-2,11,5,-2,0,-2,0,-1
336683765654,-4,0,-10,-4,1,-2,-2,-3
336683765654,-1,2,6,2,0,3,0,-4
336683781268,-3,-3,-1,4,0,0,-2,-2
336683781268,-3,-4,-7,2,0,3,0,-1
336683782078,3,10,-1,-5,-2,-1,-2,0
336683782078,-6,1,0,-3,-2,-3,-3,-1
336683795677,-1,-10,-2,-1,-3,-2,2,0
336683795677,-1,-6,-2,-2,-3,0,1,-3
336683803180,-1,1,-1,6,-2,-2,-1,-1
336683803180,-2,-16,-2,-13,-2,0,-2,-4
336683818180,-1,1,4,3,-3,-2,0,0
336683818180,-1,-3,1,7,-4,-3,2,0
336683825582,1,1,-3,0,0,0,1,0
336683825582,2,2,-4,-3,-1,0,0,1
336683841305,0,1,-4,-4,1,-2,0,1
336683841305,0,-2,1,-1,1,1,-2,1
336683842084,0,-15,4,0,-4,0,-3,-2
336683842084,1,3,2,3,-1,1,2,1
336683855666,-2,-6,1,1,2,4,-1,-2
336683855666,-2,3,3,-5,-2,-1,0,-2
336683863179,1,13,-4,-2,1,-2,0,0
336683863179,-1,-2,-3,0,2,0,-3,-1
336683878162,3,8,0,-1,-2,-2,-1,-2
336683878162,-2,-4,-4,1,2,0,-2,1
336683885663,-1,-5,-2,-4,-2,-3,-1,-1
336683885663,-1,7,-3,-3,-1,-3,-1,-2
336683901321,-2,0,1,9,0,1,-3,-2
336683901321,1,9,-6,-13,-3,-3,1,-3
336683902080,-3,2,-4,-7,-2,1,-2,-1
336683902080,-1,-2,10,6,-1,-2,0,0
336683915672,-2,-13,-7,-1,-2,-3,-1,1
336683915672,-4,-9,-5,-5,-2,0,-1,-1
336683923187,1,-3,-6,4,2,2,-1,-1
336683923187,1,3,-6,-6,-3,-1,1,-2
336683939643,-2,-16,-1,5,2,-2,1,-3
336683939643,1,4,-3,-2,-3,-2,2,-1
336683945687,-3,3,10,3,5,4,1,1
336683945687,0,0,-2,2,-2,0,-4,-1
336683961348,-2,-2,0,-5,-2,-1,-1,1
336683961348,-1,-5,-2,3,2,0,0,-1
336683962107,1,0,-2,-7,-3,-2,-2,-2
336683962107,-1,-6,0,5,0,1,0,1
336683975724,-1,5,-2,-5,-6,-1,-4,0
336683975724,0,7,10,7,3,1,-2,-1
336683983176,-2,0,-10,-18,-5,-4,1,0
336683983176,3,11,10,9,1,0,2,-1
336683998151,-4,-6,-20,-2,1,2,-2,-2
336683998151,-1,-11,2,4,1,-1,-2,0
336684005623,2,23,3,4,-1,-5,-3,0
336684005623,0,16,-4,-3,-1,-1,-1,-2
336684021257,0,3,10,-2,1,2,-1,1
336684021257,-4,-4,-2,-6,0,-4,-2,0
336684022086,4,0,-2,-2,-2,0,1,1
336684022086,-2,-12,-2,-1,-2,0,0,-1
336684035676,0,4,0,0,-1,2,2,-1
336684035676,1,-3,-2,-2,-1,-1,0,3
336684043235,-5,-8,11,5,2,3,-2,-2
336684043235,-2,-12,-5,-2,-1,-1,-1,-3
336684058168,-3,-1,7,-9,-2,-3,-3,-2
336684058168,-1,-7,-18,-1,1,1,0,1
336684065577,-1,-5,5,9,-1,-5,-3,-1
336684065577,0,6,0,-1,4,1,-2,-1
336684089499,3,8,-4,0,-1,1,2,0
336684089499,0,-1,-3,-6,-2,0,-1,-1
336684090293,1,-1,0,1,-4,-3,1,-1
336684090293,-2,6,-1,0,1,-4,0,2
336684095674,2,-1,6,0,1,1,3,2
336684095674,1,2,6,4,3,4,0,0
336684103198,-2,-12,-4,1,1,2,1,1
336684103198,0,6,1,-7,-4,-4,-1,-2
336684118157,0,2,2,1,1,0,0,1
336684118157,-1,7,4,2,-5,-2,-3,-4
336684125654,-2,4,-8,-3,1,1,-3,-1
336684125654,0,-8,10,8,1,2,1,-1
336684156088,0,-2,-14,-13,2,0,-3,1
336684156088,-1,1,0,2,-4,-2,2,1
336684165159,0,-13,-1,3,3,1,0,0
336684165159,-1,11,6,4,-1,0,0,-1
336684166729,-4,-10,1,1,-2,-1,0,-1
336684166729,1,1,-2,-11,-6,-2,-2,0
336684167553,0,-10,-4,4,3,4,0,-1
336684167553,-2,-5,-3,-5,-4,-2,-2,0
336684178199,1,-2,2,5,1,0,-2,-1
336684178199,0,-4,-1,-2,-1,-2,0,-2
336684185689,-3,8,5,-3,-5,-5,-1,0
336684185689,-1,-6,-13,-4,0,-2,-2,0
336684209441,-1,-8,3,2,1,-2,-3,1
336684209441,1,0,-7,-1,2,-2,1,1
336684210325,0,8,9,1,2,3,0,-1
336684210325,1,-3,-2,3,1,-2,-1,1
336684215618,0,-6,-4,-1,-2,-4,0,-3
336684215618,-1,2,4,8,0,3,1,2
336684223240,-2,-6,2,-3,-2,-1,1,-2
336684223240,-1,-3,-16,1,3,2,0,0
336684238157,0,21,10,2,0,1,0,-3
336684238157,-2,-4,-5,1,-1,-1,-2,-3
336684245585,-5,-7,-10,-6,0,0,-1,-4
336684245585,4,-13,2,-2,-4,-2,0,-2
336684260581,0,8,4,1,-1,-1,1,1
336684260581,-2,-8,8,2,1,2,-1,-1
336684268591,2,21,-5,-1,-3,-3,1,1
336684268591,-1,6,11,0,0,3,3,1
336684277155,-3,-2,-4,1,-1,-2,-1,-1
336684277155,3,10,11,-1,-1,-2,0,-2
336684283089,0,-6,0,2,2,1,-3,2
336684283089,-4,-2,-1,-4,0,-1,-3,-3
336684298175,1,5,5,8,1,-1,-2,0
336684298175,-3,-2,-14,-10,1,-2,1,-1
336684305673,0,-2,-2,-3,-3,2,-3,-1
336684305673,-1,-4,-7,0,-2,0,-1,1
336684320701,2,-2,6,-2,-2,-1,1,0
336684320701,-1,-8,-10,1,-1,-3,-1,-1
336684328886,0,11,0,-7,-1,-6,0,-2
336684328886,-5,-4,12,6,4,2,1,-1
336684335604,-2,-7,-20,-5,-5,-2,-1,0
336684335604,-1,-8,-2,-1,-2,-4,-4,0
336684343098,3,6,-3,-2,-4,-1,1,-1
336684343098,1,-3,0,0,-1,1,-1,0
336684358162,-2,-10,-3,-3,1,-2,-1,-2
336684358162,-1,2,0,-2,2,6,-2,-3
336684365661,0,-7,2,2,-2,0,-1,1
336684365661,1,5,-2,-5,0,-1,0,-1
336684380699,-1,4,2,-1,2,-2,0,-1
336684380699,0,0,5,8,1,-1,-2,-3
336684388836,-3,-9,-2,-7,-4,-2,3,0
336684388836,-2,-1,4,-1,-3,-3,-1,0
336684403834,-4,-9,-4,-1,3,1,1,0
336684403834,2,16,4,0,1,0,-1,0
336684404620,-4,-9,-11,-4,-3,3,-1,-5
336684404620,-1,-5,6,-6,-6,-2,-2,1
336684418131,-2,-2,-1,-1,-4,-5,-1,0
336684418131,0,10,13,4,3,-1,1,0
336684425716,1,-1,4,8,5,2,0,0
336684425716,2,-3,-3,-11,-4,-1,-1,0
336684440620,-2,3,0,5,-2,0,-3,-2
336684440620,0,-9,1,-3,-4,-1,0,2
336684448600,1,-3,1,2,3,0,-2,1
336684448600,-2,3,-2,1,3,-1,1,-1
336684463851,-1,0,8,1,-3,-1,2,-2
336684463851,-2,-2,-19,-6,-4,0,0,2
336684464624,-2,-6,-9,-1,2,-2,-2,0
336684464624,-2,0,5,1,-3,-1,-2,-3
336684478085,-2,-9,-12,4,2,-2,-1,-1
336684478085,-3,-2,4,1,-1,-1,-1,-2
336684485674,3,4,-3,-1,-1,2,-2,2
336684485674,-1,10,-1,-2,-1,0,-3,-2
336684500635,-3,2,-4,-3,-2,-4,-2,-2
336684500635,3,-8,-2,-1,-1,1,0,-1
336684508810,-2,-6,3,3,-1,-2,1,-1
336684508810,-1,4,0,1,-1,-5,-2,1
336684523643,1,-6,-2,-4,-1,3,0,-1
336684523643,-1,-3,4,4,-3,1,-3,-1
336684531380,-3,-2,-7,-5,0,-1,-1,-5
336684531380,-3,-10,-2,10,1,2,-1,-1
336684538073,0,-10,-9,-19,-3,-2,-1,0
336684538073,5,4,9,6,4,-1,0,-1
336684545649,0,-1,0,-1,-4,-1,0,1
336684545649,0,-5,-14,-1,2,0,1,0
336684560665,-2,-3,8,5,7,5,2,-1
336684560665,-2,-1,-4,-7,-2,-1,-1,0
336684568909,1,7,5,2,-3,-4,1,2
336684568909,0,-3,-6,-5,-5,-2,1,-1
336684583824,1,-12,-2,4,-2,1,-2,2
336684583824,-1,-2,1,0,3,0,0,-1
336684584618,-3,-11,4,-1,-2,0,4,-1
336684584618,1,-8,3,2,-2,-1,0,-1
336684598132,1,3,3,-2,-1,-2,1,0
336684598132,-5,-12,-1,3,1,-4,-2,-1
336684605648,-2,-4,-23,-12,-4,0,-3,-1
336684605648,-1,1,6,-2,1,1,-1,-2
336684620674,-2,1,-4,7,2,0,0,1
336684620674,-1,4,-6,-11,-4,-2,-1,-2
336684628838,1,5,9,9,7,3,-2,-1
336684628838,-3,1,5,-3,-1,1,0,-1
336684643772,1,10,-6,0,-2,0,0,0
336684643772,-2,-3,8,3,-5,-3,0,0
336684644551,2,9,-1,4,1,-3,-1,1
336684644551,0,-20,-19,-5,3,2,1,0
336684658210,4,14,6,4,0,-1,-2,0
336684658210,-1,-9,-7,-4,-1,0,0,0
336684665725,0,-1,7,-1,-3,0,-1,-2
336684665725,0,8,12,1,-2,-3,-1,1
336684680678,-2,-20,-13,-3,-1,-1,-1,-1
336684680678,2,0,-5,-3,-1,1,-3,0
336684688848,-3,-5,0,4,-3,-4,1,-2
336684688848,-3,-4,1,-8,1,1,1,-2
336684703862,-2,-3,-8,-3,-3,-2,-3,-2
336684703862,-2,6,13,4,0,2,2,1
336684704677,-3,4,1,-11,-2,2,0,1
336684704677,1,1,-4,0,-3,-3,1,0
336684718157,6,10,12,1,3,2,1,2
336684718157,-1,-11,-7,4,1,-3,-1,-2
336684725648,-2,3,1,1,0,1,-2,-1
336684725648,-1,21,5,0,-1,-2,-3,-2
336684740629,-4,-16,4,-3,-2,-2,-3,-1
336684740629,-1,0,-9,-4,-3,0,-1,-2
336684748892,4,1,7,3,-2,-2,-1,1
336684748892,2,5,-13,2,5,0,-1,-1
336684763867,-2,4,11,8,2,3,3,-3
336684763867,1,17,-1,-6,-3,1,-1,1
336684764625,-5,-10,-5,0,-2,-2,-2,-1
336684764625,1,-14,-8,-1,-2,-1,-2,2
336684778120,-4,-3,-2,-1,1,-1,-2,-2
336684778120,1,5,3,1,2,-4,0,-1
336684785727,1,9,2,-1,0,3,1,-2
336684785727,-2,1,9,7,2,1,-1,-1
336684800759,-3,-9,-7,-12,-4,-3,-1,-2
336684800759,1,0,-1,-2,-1,-1,0,1
336684808881,2,-9,2,5,3,-2,0,-3
336684808881,0,-8,0,-1,-1,2,-1,-1
336684823872,3,11,3,-3,-2,-2,-2,0
336684823872,-1,-2,-1,5,1,1,0,-1
336684824576,-1,-3,-4,-5,-4,-1,-1,-2
336684824576,-4,-6,-2,3,5,0,2,-1
336684838173,0,0,-1,-3,-6,0,0,1
336684838173,-1,2,5,-2,-1,-4,-1,1
336684845671,2,-7,2,2,0,-2,0,2
336684845671,-3,-10,-4,-6,1,-2,-2,-2
336684860612,4,14,9,4,-2,-1,-2,-2
336684860612,1,2,-5,-4,-2,-1,-2,1
336684868899,-1,-7,3,6,0,-2,-2,0
336684868899,5,-4,-14,-16,-6,-1,0,0
336684883823,-3,-1,2,2,-2,-2,0,1
336684883823,2,-3,-8,-3,4,3,1,0
336684884642,-1,8,12,7,3,-2,0,1
336684884642,0,1,-3,3,-2,0,0,0
336684898199,1,-6,2,-4,2,0,0,2
336684898199,-3,-7,-8,-2,-1,0,2,0
336684905689,-2,-2,-3,-6,-3,1,0,0
336684905689,0,3,5,3,0,0,0,-2
336684920708,0,-3,-9,-2,0,-1,-2,-3
336684920708,-2,-2,6,2,-4,1,-1,0
336684928900,-2,3,-2,0,0,2,1,0
336684928900,-2,-11,1,0,-3,0,-2,1
336684943856,1,9,0,2,-2,-1,-2,-1
336684943856,0,-5,3,2,-2,-3,-3,1
336684944609,1,17,-3,-3,-2,-1,-1,1
336684944609,-3,19,0,-3,-2,0,2,0
336684958153,-3,-6,6,-1,-2,1,0,-3
336684958153,-4,-12,-13,-3,1,-2,0,-1
336684965710,4,10,1,10,-3,-1,-2,-2
336684965710,0,-4,-8,-18,3,0,-2,-1
336684989529,-1,1,2,3,0,-1,-1,2
336684989529,-2,1,7,1,0,-2,0,0
336684990288,-3,-11,-26,-4,1,2,-2,-1
336684990288,0,-4,1,5,-2,0,-3,-1
336685003855,-1,-2,-5,0,1,-2,2,1
336685003855,-1,-2,6,0,0,-3,0,1
336685004609,-1,6,4,-3,-2,-3,-2,0
336685004609,0,-2,1,5,-2,2,-1,1
336685018229,-3,-8,-5,-4,2,-3,-1,-1
336685018229,2,8,4,2,0,2,0,-3
336685025680,0,-6,-10,-7,-2,-3,-1,-1
336685025680,0,8,4,5,0,-3,0,-1
336685040698,-3,9,2,1,-2,0,-3,0
336685040698,0,-2,-8,-7,-1,1,1,1
336685048879,-2,-8,7,-1,0,0,0,0
336685048879,-2,-3,-4,2,-3,-3,-2,-1
336685063830,0,1,1,-2,-1,1,0,1
336685063830,-3,0,1,5,-1,-2,-1,-3
336685064629,-2,-7,3,-14,4,1,0,1
336685064629,-2,-8,-10,3,-3,0,1,0
336685078248,2,6,2,0,2,3,0,0
336685078248,1,-3,-4,-1,-1,2,-1,-3
336685085734,-2,-12,4,7,1,-1,1,-3
336685085734,0,-6,6,-4,-2,-4,0,-1
336685100728,-1,-4,-7,-1,-4,1,-3,-1
336685100728,2,6,5,-2,2,0,-2,0
336685109294,-1,-17,1,3,0,-2,-1,1
336685109294,0,-6,-2,-4,-1,1,0,0
336685123251,5,14,-5,-1,-5,-4,2,1
336685123251,2,9,10,0,2,2,3,1
336685131349,0,9,1,-4,-2,-1,0,-1
336685131349,1,-2,2,2,4,6,1,0
336685138207,1,-7,2,3,1,-2,-1,-1
336685138207,-2,-3,-16,-7,-5,-2,-2,-2
336685145758,2,7,6,3,-1,0,-1,0
336685145758,-2,11,2,3,-2,1,-2,0
336685160697,-2,-3,-1,0,3,0,1,-1
336685160697,-1,0,8,1,-2,0,-2,1
336685168923,3,4,-7,-3,-5,-2,0,-1
336685168923,1,6,-4,-2,1,-3,2,0
336685183250,-1,-13,-1,4,2,3,-3,0
336685183250,-1,1,10,7,-4,-4,-3,-2
336685191370,-1,-4,-18,-13,1,1,1,1
336685191370,1,0,4,4,0,-2,0,0
336685198214,-2,0,1,-8,-4,0,3,0
336685198214,-2,5,3,5,0,-1,-1,0
336685205648,0,-7,-1,1,2,3,-1,-1
336685205648,-1,-6,-1,-2,-1,3,1,-1
336685220784,-2,-4,-1,-3,-4,-5,-3,-1
336685220784,1,-1,-6,-12,-4,2,3,0
336685229156,-2,-4,-1,9,0,-2,-1,-2
336685229156,-3,3,1,0,1,-1,-2,-1
336685243239,-1,-2,-5,-2,0,-3,2,0
336685243239,-1,-11,-3,0,-1,-2,-1,-2
336685251375,0,-2,-1,-4,-3,-2,-1,-1
336685251375,-2,0,6,3,-1,-2,-1,-2
336685266382,-3,0,-2,-7,-1,0,-4,-1
336685266382,-3,1,-2,-1,-2,-6,0,-1
336685267200,-2,-2,7,0,-4,0,-2,-2
336685267200,1,0,-9,-1,1,0,-1,0
336685289569,-4,-13,8,12,1,-1,0,-1
336685289569,3,19,-12,-13,0,1,-1,-1
336685290277,0,8,3,1,-3,-1,-3,-1
336685290277,-2,-4,-5,4,5,1,1,-3
336685303206,-3,4,-9,-9,-3,0,-1,-3
336685303206,1,2,5,8,2,-1,0,0
336685311439,-3,-5,5,1,-2,-2,-2,-1
336685311439,3,4,0,-4,3,-1,-1,0
336685326296,1,2,0,0,-4,-2,-1,1
336685326296,-3,-16,-6,-2,-4,-2,1,1
336685327056,1,13,3,2,1,2,1,-2
336685327056,-2,0,5,0,-2,0,1,1
336685340677,1,1,3,-2,1,2,1,0
336685340677,-2,-21,-1,1,1,1,-2,0
336685348941,-1,-4,-5,-3,-1,-1,0,0
336685348941,-2,-3,3,2,3,0,-2,-4
336685363196,0,4,-4,-3,0,-3,-1,0
336685363196,1,12,2,-3,-3,-3,2,1
336685371815,-3,-9,0,5,0,3,2,-1
336685371815,-4,-6,-8,-12,-6,-1,-1,0
336685386093,-1,-10,-7,3,0,-2,-1,-3
336685386093,-3,-9,3,-1,0,-1,1,-2
336685393956,3,0,1,-1,2,-2,-1,1
336685393956,-2,-5,-2,-1,-5,1,2,0
336685400774,2,-6,0,4,2,2,0,-1
336685400774,-1,14,-7,-3,-1,4,-4,-3
336685408888,-4,-2,5,-1,3,1,0,1
336685408888,2,-2,2,-3,-3,1,-1,0
336685423204,3,12,11,0,1,0,-1,0
336685423204,-2,-3,-6,4,1,-2,-4,-3
336685431131,3,1,-5,-3,-1,-4,0,1
336685431131,2,7,2,0,-3,-2,1,-1
336685446402,-2,-6,3,2,-4,1,-1,2
336685446402,0,-1,-5,3,2,0,-2,1
336685447150,-1,-13,2,1,-2,-2,-2,0
336685447150,-1,2,4,0,0,-1,-4,0
336685460725,-3,-8,-4,-3,-1,-3,-2,-2
336685460725,0,-8,1,1,-3,-2,-1,0
336685468860,1,1,-7,-4,-3,-1,0,-2
336685468860,-1,-5,-2,-1,-2,-3,1,-2
336685483221,-2,0,-5,-3,-2,-1,0,-2
336685483221,2,18,6,0,0,1,1,0
336685491403,-3,-7,-2,2,2,-1,-1,2
336685491403,0,-1,-2,0,-2,-1,-2,0
336685506319,0,-3,-5,-2,-1,2,1,1
336685506319,-4,-13,1,-2,-1,-2,2,-1
336685507087,-1,10,-10,-3,-4,2,1,-2
336685507087,1,-17,9,0,0,1,1,2
336685520733,1,-4,-17,-6,1,1,0,1
336685520733,1,-2,9,3,0,0,0,1
336685528873,-2,1,3,-4,2,3,0,0
336685528873,-2,1,-11,4,3,-1,1,-1
336685543150,3,11,11,5,-6,-2,0,-1
336685543150,-1,-6,-8,-7,3,2,1,0
336685551425,-1,-3,3,-1,-1,-2,0,-1
336685551425,-2,-1,-2,2,-2,-2,0,-2
336685566378,-4,-8,1,1,2,0,0,1
336685566378,0,13,1,-2,-2,1,-3,-1
336685567144,2,4,1,4,2,1,-4,-2
336685567144,-1,-4,2,-3,-3,1,-1,0
336685580733,1,5,-4,0,1,-1,-1,0
336685580733,-1,-19,2,3,2,1,2,0
336685588867,-3,-9,-8,-9,-4,-3,2,-2
336685588867,4,14,7,3,-3,-1,-1,-1
336685603685,1,5,-5,-3,-3,-2,2,2
336685603685,-2,-5,2,4,2,-1,-1,0
336685611421,-2,11,3,1,-1,-2,1,-2
336685611421,-4,4,-10,-13,-4,-2,0,0
336685626402,0,-3,5,7,5,0,0,-3
336685626402,-1,-4,0,-1,-1,0,1,0
336685627167,2,-8,1,3,-4,-2,-2,1
336685627167,-1,4,1,-3,1,0,-1,2
336685640770,0,6,5,-2,-7,-2,-1,-1
336685640770,-6,-10,-9,0,0,1,-3,-1
336685648923,1,-1,1,4,0,-2,0,1
336685648923,-6,-1,5,0,0,0,-2,0
336685672036,-3,-12,-1,0,1,-1,2,-2
336685672036,-2,-2,3,3,4,1,-2,-2
336685672819,-1,-7,-4,-4,-7,-4,-4,0
336685672819,1,-14,-2,4,1,-1,0,1
336685685725,-3,20,9,-2,-1,-2,-2,-1
336685685725,0,-3,-16,-13,-8,-3,0,2
336685694720,-2,-5,2,0,2,3,-2,-2
336685694720,2,0,0,4,4,4,-1,-5
336685709599,2,-2,-1,-1,-1,0,-2,-1
336685709599,4,1,1,3,0,-2,0,-2
336685711133,-1,13,-17,-8,-2,-1,0,0
336685711133,-2,0,1,5,3,1,-3,0
336685723218,1,-9,-1,-7,-6,2,0,0
336685723218,0,4,4,3,2,2,-1,0
336685732267,1,1,3,-5,1,1,2,0
336685732267,0,0,-1,-4,-2,0,2,3
336685745699,1,-3,2,-3,1,3,-2,0
336685745699,-1,1,-3,-2,-4,-5,0,0
336685761375,0,3,7,3,2,0,-1,0
336685761375,1,1,0,-1,-1,0,1,0
336685762176,-3,-22,-7,0,-3,-2,0,-3
336685762176,4,27,0,-5,-1,-1,0,-2
336685769775,0,-12,-2,2,-3,-5,-1,1
336685769775,-3,-1,-3,4,1,-2,-1,-3
336685783200,-1,-2,-4,-3,-3,0,-1,0
336685783200,0,-7,3,0,-1,1,-2,-2
336685792168,1,-3,-4,-7,-3,-3,-1,-1
336685792168,1,-4,8,12,2,-1,0,-1
336685805720,-2,-2,-8,-17,-3,-5,-1,-1
336685805720,-2,-12,-15,-2,-4,-1,2,0
336685814703,1,9,9,2,0,3,-1,-1
336685814703,-1,-2,0,-3,-4,-2,-2,-2
336685820724,3,11,4,5,6,0,0,0
336685820724,-2,-5,9,2,-2,-3,-3,0
336685829720,1,4,-3,-1,2,4,3,-2
336685829720,-1,-2,-13,-10,-3,-4,-1,0
336685843159,-5,-10,7,3,2,-1,-1,0
336685843159,-1,0,4,-2,0,1,-1,0
336685852210,0,-3,-3,9,5,1,0,-1
336685852210,-1,5,14,-2,1,-4,0,-2
336685865722,0,-2,-24,-5,-5,-2,-1,-1
336685865722,-1,-2,3,-1,1,0,1,-2
336685881386,-3,-3,-2,-2,2,1,1,-1
336685881386,2,-2,3,-2,-3,-1,0,-2
336685882126,-1,6,2,1,-1,-3,1,-1
336685882126,-3,5,4,7,3,0,-2,1
336685889717,-2,-4,-3,-8,-7,0,0,-3
336685889717,1,-2,-5,1,0,1,-1,0
336685903260,-2,5,4,-2,-1,-1,-3,2
336685903260,1,-1,7,-2,3,0,-1,1
336685912249,-2,4,10,1,1,-3,-3,0
336685912249,-3,-4,-10,-2,-5,0,0,1
336685925749,-3,-15,-5,-5,1,0,0,0
336685925749,2,9,20,7,-3,-1,2,-3
336685934700,0,-7,-6,-5,0,-4,-2,2
336685934700,1,2,-20,12,2,0,-2,-2
336685940698,2,3,29,2,0,-1,-1,1
336685940698,-6,-18,-21,-5,3,-3,-2,0
336685949764,-2,0,-1,-7,-8,-2,-2,-3
336685949764,-2,-6,2,-4,0,3,2,2
336685963200,0,9,-2,3,-4,0,-1,-1
336685963200,0,-4,-10,-7,-5,-4,1,-1
336685972247,1,3,15,6,-2,1,-2,1
336685972247,-1,6,-10,-19,-5,-1,-2,-2
336685985746,2,2,4,11,4,0,0,-2
336685985746,-2,0,4,3,-2,0,-1,-3
336686001197,1,-10,-36,-7,0,-4,-1,0
336686001197,3,6,16,6,0,-2,-3,0
336686009567,-2,1,-16,-6,-4,3,-2,0
336686009567,0,-3,6,14,1,-1,-4,-1
336686011123,-4,3,17,-5,-1,-1,0,0
336686011123,0,0,-6,-5,2,-1,-1,0
336686023199,-2,3,-2,0,-1,0,2,-1
336686023199,3,-3,-9,-6,0,1,1,0
336686032148,-2,-17,4,5,2,1,-2,-1
336686032148,-3,-4,-13,-8,-4,-4,-2,-4
336686045775,-1,3,5,1,2,-1,-1,0
336686045775,-1,-11,-1,0,-2,1,2,0
336686054791,3,15,6,-3,0,0,-2,1
336686054791,-2,0,1,-1,-1,0,-1,0
336686060690,1,3,6,10,4,-1,-3,-1
336686060690,-2,1,-14,-13,-4,2,0,-2
336686069778,-2,-3,2,4,2,1,-1,-2
336686069778,-1,-1,4,2,0,-1,0,1
336686083243,0,-2,-7,2,0,-1,0,-1
336686083243,1,0,14,-9,-2,-3,0,1
336686098222,-1,-15,-1,1,-2,-2,2,2
336686098222,3,13,-9,-3,0,0,0,-1
336686105746,1,14,19,0,0,0,-1,0
336686105746,0,-2,-3,5,-1,0,-1,1
336686114747,-1,-4,-4,-9,-4,-2,-1,-2
336686114747,-1,-4,10,7,1,1,0,-1
336686120775,1,7,-5,-5,-3,-2,0,-2
336686120775,1,8,2,3,1,0,0,0
336686129680,0,5,5,7,0,0,-2,0
336686129680,-2,-7,5,0,-2,0,-2,0
336686143241,-1,-5,-9,-2,-2,0,1,-1
336686143241,-4,0,-2,-1,-1,0,-2,0
336686152248,-1,0,-5,0,-3,-1,1,1
336686152248,-1,0,-2,3,0,1,-3,0
336686165761,-1,-16,-2,0,1,0,0,0
336686165761,-1,-1,0,0,-2,-2,-2,0
336686181359,-1,1,2,5,4,1,-2,0
336686181359,-1,-7,-8,-5,-3,-4,1,-2
336686182179,-2,-2,-7,-10,1,1,-4,3
336686182179,0,-1,1,-2,-7,-3,2,-1
336686189714,0,-1,-5,10,6,2,1,-2
336686189714,0,-3,-8,0,4,2,-1,1
336686203250,-2,1,4,-11,-4,-2,1,0
336686203250,-1,-2,-2,0,-1,0,0,0
336686212212,-1,-5,0,-2,-1,-2,-1,-1
336686212212,1,1,2,4,0,0,-2,-2
336686225816,-1,-4,-1,3,-2,-2,0,-2
336686225816,-2,1,-14,-5,2,2,-2,-4
336686234754,0,-2,2,-3,-4,0,-1,-2
336686234754,3,17,4,-3,0,0,-1,-2
336686240746,-2,-3,-1,0,-4,-1,-2,1
336686240746,-2,-8,-4,-5,-1,-3,0,-1
336686249746,1,4,4,8,3,-1,1,-1
336686249746,-1,0,3,-6,-2,1,-1,-1
336686263249,0,-4,5,8,1,-3,0,0
336686263249,1,5,0,1,0,0,-1,-2
336686272207,1,-3,-22,-9,-3,-1,-1,0
336686272207,-4,12,25,-3,-6,-1,1,0
336686285747,-1,-5,-14,-7,-1,0,-2,0
336686285747,1,2,2,10,1,-1,0,2
336686294806,1,1,9,-7,-4,-1,-1,-2
336686294806,1,-6,-2,0,-1,-1,1,-1
336686309582,2,7,-8,-3,-1,-1,0,-2
336686309582,-1,6,6,5,-2,-1,-1,1
336686311156,-1,3,-8,-12,1,0,0,-1
336686311156,2,-4,-4,5,2,0,-3,0
336686323268,-3,-6,-1,-1,2,2,0,-1
336686323268,1,6,-1,-3,1,-3,-1,-2
336686332226,0,2,9,2,-5,-2,-2,0
336686332226,-3,-10,-4,-2,-2,-3,0,0
336686345775,-2,0,-16,1,-1,0,1,0
336686345775,-2,1,2,2,0,0,0,-1
336686354785,-2,-4,0,-6,2,-1,0,-2
336686354785,1,0,3,-8,-6,-1,-1,-1
336686369562,-3,-1,-1,25,10,3,-2,-3
336686369562,-1,2,10,-25,-9,-2,0,-1
336686371175,1,2,4,6,-2,0,0,1
336686371175,1,-7,-18,-1,1,-3,-1,1
336686383257,-1,12,17,6,1,1,-2,-3
336686383257,-1,-5,-14,-13,1,1,0,0
336686392196,-3,-6,15,15,5,1,0,0
336686392196,-3,-5,-15,-4,-5,0,2,-1
336686405663,2,0,-4,-8,2,0,-1,1
336686405663,2,-1,19,13,1,-1,-2,-2
336686414760,-2,-2,-24,-11,-1,-2,1,-1
336686414760,0,0,4,-1,-1,0,0,0
336686429663,0,-5,2,-4,-3,-2,1,-1
336686429663,-3,-5,-3,3,2,2,0,-1
336686431185,0,5,-2,-2,-4,-1,0,-1
336686431185,0,-3,16,12,2,-3,-2,-3
336686443230,0,1,4,-4,-3,0,-1,0
336686443230,1,-4,-5,-7,-2,0,0,2
336686452282,1,4,1,7,-1,1,0,0
336686452282,1,6,15,-11,-9,-1,-2,-2
336686465734,-5,-21,-62,-12,-1,-2,-2,-1
336686465734,-2,4,25,13,-4,-2,-2,-3
336686474745,0,-2,-2,1,4,1,0,-1
336686474745,-1,5,22,-2,-2,1,-1,0
336686489596,2,2,9,-2,-5,-3,-1,0
336686489596,-2,-11,-14,6,4,3,-1,-1
336686491194,-1,-1,-9,-2,1,-3,-1,-1
336686491194,3,2,-1,9,7,3,1,1
336686503285,-1,4,10,-2,-6,-2,-3,1
336686503285,0,-4,-12,1,1,-2,-1,-1
336686512196,1,4,19,6,-2,1,0,-2
336686512196,-1,-13,-26,-3,3,-1,-1,-2
336686525768,0,1,0,-6,-1,-2,1,1
336686525768,0,-6,7,7,0,-2,0,0
336686534786,-2,-4,-4,-8,-4,-1,-3,0
336686534786,-3,-3,-27,2,5,0,-2,0
336686549712,-1,-2,20,12,-3,0,0,-3
336686549712,0,13,-22,-28,-5,-1,0,0
336686551184,3,5,15,2,6,2,0,2
336686551184,0,2,3,1,-4,0,0,-1
336686563296,-4,-10,-15,-19,-9,-1,1,-1
336686563296,0,-3,-6,16,3,0,-2,0
336686572245,0,2,7,-4,-9,-2,1,1
336686572245,-3,-3,-13,-3,8,1,0,0
336686585776,1,7,16,8,2,1,1,0
336686585776,-3,-4,3,-7,2,0,0,0
336686602175,-2,-1,-3,3,-5,-4,-3,-2
336686602175,-1,-2,2,-9,-8,-2,-1,1
336686609571,0,0,-14,-2,10,5,3,-1
336686609571,1,-1,3,-8,-9,-2,-2,-1
336686611154,-1,5,6,5,-2,1,-2,-2
336686611154,-2,-4,6,-8,0,1,0,-1
336686623225,1,0,1,2,3,-2,0,1
336686623225,0,2,13,6,0,0,-2,-1
336686632248,-2,-5,-17,-8,-1,0,1,-1
336686632248,0,9,26,19,1,-1,-1,-2
336686654572,1,-3,1,-3,-2,0,-1,2
336686654572,-1,-1,13,-6,3,3,1,-1
336686656193,0,-7,-17,6,0,-1,-2,-1
336686656193,0,2,27,9,-2,-1,0,-1
336686669633,-1,7,10,-20,-7,-2,-1,-1
336686669633,1,-1,-11,10,4,-1,1,-1
336686671225,-3,1,-4,-5,-1,0,-2,-1
336686671225,-2,-1,2,1,2,3,2,0
336686683230,-1,-3,4,15,-1,0,-2,-2
336686683230,-3,-8,-15,-18,-5,0,-1,0
336686692222,2,2,14,2,1,1,0,1
336686692222,0,-5,-17,-10,-4,-3,-3,0
336686705802,-1,2,9,7,-3,-2,-2,0
336686705802,-2,0,-10,-5,-1,-1,0,1
336686714774,1,4,16,11,7,1,-1,-1
336686714774,-3,-9,-12,-18,-9,-4,-2,0
336686729613,1,-2,-6,1,1,0,0,-3
336686729613,1,5,-3,-5,-6,-4,-1,0
336686731195,-1,-2,5,-7,-7,-1,-2,1
336686731195,0,3,-9,9,8,1,2,-2
336686743255,-3,-2,19,-8,1,0,-1,-1
336686743255,0,1,7,3,-4,-2,0,-2
336686752283,-4,-4,-25,-3,-1,0,-1,-2
336686752283,2,1,5,19,5,0,1,-3
336686765713,-1,-3,-6,-17,-5,0,0,2
336686765713,2,0,10,11,2,1,1,-2
336686780814,-1,-4,2,-2,-2,-1,-2,-1
336686780814,2,-1,3,2,0,1,-3,0
336686789599,-1,-1,7,11,0,1,1,-1
336686789599,-2,-5,-37,-9,-5,-2,-3,1
336686791172,0,0,7,5,5,1,1,0
336686791172,0,4,14,-4,0,-1,1,1
336686803288,0,-4,-22,-4,3,0,-2,-3
336686803288,-1,1,-3,5,3,0,1,-2
336686812265,1,-5,-15,-4,-2,0,-1,1
336686812265,-2,3,16,-2,-2,-1,-1,-1
336686825710,-1,-6,-18,2,-1,-2,-2,-3
336686825710,-1,-4,0,3,1,1,-1,0
336686834755,-1,2,-5,-6,0,-2,-2,-3
336686834755,0,1,5,2,2,0,-2,0
336686849627,-1,3,18,12,0,-2,2,1
336686849627,0,-3,-15,-7,-2,2,-1,-3
336686851219,-1,3,15,4,-2,-2,-2,2
336686851219,0,-3,-3,-6,-4,0,-1,1
336686863419,2,-3,-11,-3,-1,1,1,1
336686863419,0,2,17,13,7,0,-4,0
336686872219,-3,-8,-32,-19,-5,0,2,-2
336686872219,-4,-2,-12,-2,-2,1,1,-1
336686885849,1,4,27,-1,-4,-2,-2,0
336686885849,0,-2,-4,1,-2,-1,2,0
336686894735,0,0,4,1,3,1,0,-3
336686894735,-2,-4,-11,0,1,-2,-3,1
336686909565,-1,0,-7,-4,0,1,-1,2
336686909565,-1,0,8,-1,-1,-2,1,0
336686911215,-4,0,-3,1,1,-2,0,-1
336686911215,-1,-2,-2,-4,-3,1,-1,-3
336686923272,1,1,4,14,2,2,-2,0
336686923272,-2,-2,-22,-24,-7,-2,-1,0
336686932296,-1,0,6,2,0,2,0,1
336686932296,-1,-2,4,3,-1,1,1,0
336686945793,-3,-7,-23,-7,-2,-3,-1,-1
336686945793,2,2,28,13,-1,-3,-2,0
336686954792,-2,-9,-33,-14,-6,0,-1,-1
336686954792,-1,-6,-13,-3,3,1,1,1
336686969659,2,8,39,4,-5,-4,-1,0
336686969659,-2,-7,-26,-4,5,-1,1,0
336686971223,1,0,11,2,0,2,1,0
336686971223,-1,-3,-15,1,-3,-1,-3,0
336686983167,-2,0,-1,4,2,-1,0,0
336686983167,0,4,9,4,-1,2,1,0
336686992193,3,1,9,4,2,-3,0,1
336686992193,-3,-4,-16,-7,-1,-2,0,-4
336687005845,-2,-1,3,-4,1,0,-4,-1
336687005845,0,2,2,-1,0,1,-1,2
336687014757,0,2,6,7,-2,-5,0,-2
336687014757,-1,1,6,-1,-4,0,0,1
336687028900,-2,-3,-22,-2,2,0,1,-2
336687028900,0,-2,8,0,1,1,-1,-2
336687035757,-1,3,9,10,0,-2,-2,0
336687035757,0,-2,3,-11,-2,-2,3,-2
336687043312,-3,-1,-10,-4,-5,-1,-3,-2
336687043312,0,2,11,-2,-3,-2,0,2
336687052299,-3,-1,0,-5,-2,-2,-2,0
336687052299,1,0,13,17,4,1,-2,0
336687065800,-3,-3,-20,-26,-3,-2,0,-3
336687065800,0,1,13,2,-2,-3,-1,-3
336687074705,-3,-4,-23,-8,-1,-2,-3,-1
336687074705,-2,-3,-4,-6,-1,1,2,-1
336687088922,2,5,31,15,5,2,2,1
336687088922,-2,-2,-9,-4,-3,-4,-2,0
336687095823,0,0,-1,-1,1,0,0,-2
336687095823,1,1,-1,-1,-3,-3,0,-1
336687103308,-1,-5,3,9,3,1,0,-2
336687103308,0,0,-13,-10,0,1,0,-2
336687112209,1,5,10,8,-3,-2,-1,1
336687112209,0,0,14,-4,2,1,-1,-2
336687125775,-4,-4,-7,0,-4,-1,1,-1
336687125775,0,-1,8,-3,-2,-1,-1,0
336687140750,0,0,-4,-3,-2,0,-1,1
336687140750,0,3,5,9,2,-1,0,2
336687148685,3,-1,10,-3,1,0,1,0
336687148685,-3,4,24,-2,-5,0,-2,-4
336687157243,-3,-2,-2,-6,0,0,-1,-1
336687157243,0,-3,-8,5,0,-3,-2,1
336687163202,1,4,14,2,-1,1,-2,0
336687163202,3,0,3,7,-2,-2,1,-1
336687172211,-3,-3,0,-2,1,1,1,-1
336687172211,0,0,5,-1,-3,-1,0,-1
336687185739,-1,-5,-20,-9,-4,0,-1,-1
336687185739,-2,-3,-8,0,1,2,-2,-1
336687202228,2,-1,10,5,-2,-3,-1,-1
336687202228,-3,-3,-12,0,2,0,2,-1
336687216173,0,1,2,-16,-5,-2,-2,2
336687216173,-6,-9,-35,-6,-1,-1,0,-2
336687224724,2,2,1,4,1,-3,1,0
336687224724,0,2,19,0,-2,0,-1,-1
336687232099,0,2,-4,2,2,0,0,0
336687232099,-2,2,-6,4,-1,-3,-1,-1
336687233696,0,-4,10,0,-1,1,1,-1
336687233696,-2,-5,-26,-5,-3,-2,-1,-1
336687245740,-1,-2,-2,1,1,-1,0,-1
336687245740,3,1,15,6,3,1,-1,0
336687269609,-2,-6,-19,-8,-6,0,-1,-2
336687269609,-1,6,-7,-8,-4,-1,-3,1
336687270363,0,-1,4,10,5,2,1,-1
336687270363,-1,2,16,2,-1,1,0,1
336687283241,0,2,3,-5,0,0,-1,-1
336687283241,-1,-1,-5,-4,-2,-3,-1,-3
336687292110,-2,1,-9,-4,-6,-4,1,0
336687292110,-2,-6,-18,-2,1,0,-1,0
336687293678,-1,-2,-3,0,0,3,-1,1
336687293678,-1,5,13,-3,0,-3,0,1
336687305767,-1,-2,7,3,-3,-5,-2,0
336687305767,0,-2,6,8,0,-2,0,-2
336687314711,-1,-1,-5,-3,-2,1,1,1
336687314711,0,0,11,-3,-2,0,-1,-2
336687328933,-3,-10,-36,-6,-4,-2,0,-2
336687328933,-3,0,3,10,3,-2,1,-3
336687335754,2,2,13,-7,0,1,1,1
336687335754,-1,-4,1,3,-2,-1,-3,-1
336687352089,-3,3,-3,-12,-3,-2,-1,-2
336687352089,4,3,3,-1,0,1,1,-2
336687353643,-3,1,15,10,1,-1,-3,-2
336687353643,-2,-3,0,3,-2,1,-3,0
336687365759,-3,-6,-11,1,2,1,1,1
336687365759,-1,-2,-10,-5,-1,2,-1,0
336687380759,-1,0,9,1,-3,-2,0,-2
336687380759,-1,-2,-9,-1,0,0,-2,0
336687388884,-1,-1,9,-1,-1,-1,-1,-2
336687388884,-3,-5,-10,-2,1,-1,-1,-1
336687395768,0,1,-4,0,2,-2,0,0
336687395768,0,-3,-6,-2,-3,0,0,1
336687412122,1,-3,4,9,-1,-1,-1,-1
336687412122,0,0,15,0,-4,-1,-2,-1
336687413709,0,6,14,-1,0,0,-2,-1
336687413709,-4,-9,-33,-13,-2,-1,0,-1
336687425718,0,6,18,5,0,4,1,-1
336687425718,1,-3,-10,4,1,-2,-1,-2
336687434730,0,0,3,4,-4,-3,-2,-2
336687434730,0,1,-13,-7,5,1,0,0
336687448959,-1,-1,10,7,0,-2,-2,0
336687448959,-1,-1,-8,4,-2,0,0,1
336687455756,-2,-3,-12,-7,-2,0,-1,0
336687455756,3,5,10,10,-3,-1,0,1
336687472115,-1,-4,-20,-10,0,0,1,0
336687472115,0,3,15,6,0,1,2,0
336687473697,0,-8,-12,-7,-2,-1,0,-2
336687473697,0,0,14,5,1,-1,0,0
336687485773,2,4,4,-1,-2,0,-2,-2
336687485773,-2,1,0,-7,-2,0,-1,0
336687494719,0,-1,-4,12,4,1,-1,0
336687494719,-3,-4,1,-10,-1,0,0,-4
336687508684,-3,2,-15,-8,-3,-4,-1,0
336687508684,-2,2,-3,2,1,-2,-1,0
336687517200,-2,-1,-19,-12,1,0,0,-2
336687517200,2,1,19,1,-5,-4,-1,-2
336687532071,2,-2,6,2,0,-1,-1,1
336687532071,0,-5,-13,-1,0,0,0,-1
336687533678,3,2,-6,5,4,-2,0,1
336687533678,-3,-3,-5,-14,-3,-2,-2,-2
336687545761,0,-2,-6,-1,2,2,0,-2
336687545761,-2,-4,3,-4,-8,-1,-3,-2
336687554795,2,1,10,10,0,0,-2,0
336687554795,1,2,6,-3,-3,-2,0,0
336687568951,-3,-10,-10,8,2,-1,0,-1
336687568951,3,7,3,-15,2,2,1,0
336687575748,-2,8,3,-4,-5,-4,0,-1
336687575748,-1,-6,-4,8,0,1,-2,-1
336687592111,-1,1,12,2,-1,-1,-1,1
336687592111,-1,-4,-7,0,1,-1,2,-1
336687593700,-2,-1,7,-4,-5,0,1,0
336687593700,1,1,-14,2,2,0,-1,-2
336687605790,1,3,11,2,1,2,0,-1
336687605790,0,-1,8,10,7,-1,0,-1
336687614724,-1,-7,-18,-4,-6,-1,-1,1
336687614724,-3,-4,-4,-8,0,1,1,-1
336687628661,-1,-4,-3,0,-2,0,0,0
336687628661,0,5,15,3,-3,-2,-1,1
336687643242,-1,-6,13,5,2,-1,-1,-2
336687643242,-3,-2,-32,-26,-5,-2,1,0
336687652105,0,-2,2,3,1,-1,-1,0
336687652105,-2,-5,-16,-4,-2,1,-1,-1
336687653703,-1,-1,7,-6,-4,0,1,1
336687653703,2,1,1,10,3,0,-3,0
336687665805,1,3,0,-8,-1,-2,1,-1
336687665805,-2,-9,-2,-3,1,0,0,-1
336687674731,-1,5,-6,-4,-4,-5,-1,-2
336687674731,0,-6,0,7,1,-2,-1,-2
336687688921,0,2,2,3,2,-1,-1,-1
336687688921,-3,-7,-9,-5,-5,-3,-1,-2
336687695788,0,-2,-1,4,0,1,-1,-1
336687695788,-2,3,11,-13,-3,0,1,-1
336687712082,-2,3,-8,-7,-3,0,-1,-3
336687712082,-2,-2,5,0,-2,-2,1,-2
336687713683,-2,-6,6,6,4,1,1,-1
336687713683,-1,1,-8,3,-1,0,-2,-2
336687725759,1,-6,0,2,3,-1,0,0
336687725759,-1,7,3,-5,-1,1,0,-1
336687734769,-1,-5,-10,-9,-4,-2,-1,0
336687734769,-1,9,23,16,-1,-3,-3,-1
336687748717,-1,-8,-16,-6,-1,1,1,-1
336687748717,2,-1,4,-1,-4,1,-3,-1
336687757257,0,-3,-16,2,4,2,-1,-2
336687757257,-3,-2,3,-16,-3,-2,1,0
336687772135,-1,3,-12,1,-2,-2,-4,0
336687772135,-1,6,15,-1,1,0,2,-1
336687773706,-4,-10,-20,0,1,0,-2,-1
336687773706,4,6,5,4,1,0,0,0
336687785771,-1,-1,-2,6,-1,-1,0,0
336687785771,-1,3,-1,-3,-2,-2,-1,-2
336687794729,0,5,6,-13,-4,-1,1,1
336687794729,1,-13,-18,15,5,1,-1,0
336687808906,-1,5,6,-5,-2,-2,0,0
336687808906,1,2,6,15,3,-2,-3,0
336687815732,-5,-5,-23,-25,-6,-4,-2,-3
336687815732,-2,-4,7,6,-1,-2,0,1
336687832107,-1,6,12,1,-1,1,-1,0
336687832107,-2,-7,-4,-2,0,-2,-1,0
336687833682,-1,10,6,4,1,-1,2,-3
336687833682,1,-2,-8,-1,0,1,-1,1
336687845736,-1,1,6,-2,-1,-1,-1,-5
336687845736,-2,-4,-14,-10,-6,-2,-2,-3
336687854755,2,1,12,6,3,1,0,-1
336687854755,-3,-2,-8,-3,-4,0,0,-1
336687868981,0,1,11,18,0,-1,0,1
336687868981,1,-9,8,-13,-3,0,1,0
336687875776,1,9,9,8,-1,-1,-1,3
336687875776,0,2,11,-6,1,-1,-2,-2
336687892139,1,-3,-12,6,6,0,1,1
336687892139,-2,1,12,-1,-7,-2,-1,1
336687893727,-1,-7,1,3,0,-1,-3,-3
336687893727,1,0,-7,-6,-2,1,1,2
336687905745,-2,0,13,0,0,-1,0,0
336687905745,2,1,-17,-2,0,0,-1,2
336687914736,-4,-6,17,4,1,1,1,0
336687914736,0,5,4,3,-3,2,-1,1
336687928960,-3,-5,-15,-9,-2,-3,-2,-3
336687928960,-1,-5,-9,1,2,-2,0,0
336687935744,0,10,6,2,0,1,0,0
336687935744,-2,-2,1,2,2,0,-1,0
336687952111,-1,-1,2,-7,-2,0,1,1
336687952111,-2,0,-8,3,3,1,-1,1
336687953704,0,-4,-5,-2,-1,-2,0,2
336687953704,-3,0,3,-2,-3,-2,0,-4
336687965766,1,1,7,9,2,1,-1,1
336687965766,-1,1,-5,-11,-6,1,0,-1
336687974815,-1,-1,19,6,-4,-1,-2,-1
336687974815,0,-1,-23,-6,0,-2,1,0
336687988960,1,-4,11,3,-2,-1,0,0
336687988960,2,8,5,5,3,0,-2,0
336687995743,-1,-1,13,1,-2,0,-3,0
336687995743,-1,-1,-21,-4,0,-1,-1,-1
336688011478,-2,-2,-8,-4,-2,0,0,1
336688011478,4,15,24,3,0,-3,0,0
336688018248,-2,-8,-35,-11,-1,1,-1,-3
336688018248,1,-1,23,8,1,-1,-2,-1
336688025785,-2,-1,-5,-10,-3,0,0,1
336688025785,-4,-2,-3,2,3,0,-2,0
336688040840,-1,-4,-1,1,-1,-1,-1,1
336688040840,-1,-5,4,7,-1,-2,0,-1
336688048988,-3,4,-14,-17,-3,0,-1,-1
336688048988,-1,-6,-1,1,-3,1,2,-1
336688055862,3,3,-4,-2,2,-1,-2,-1
336688055862,0,0,8,12,4,2,-2,-1
336688071602,1,1,-5,-11,-5,-3,-2,-1
336688071602,-4,-4,-19,-3,0,-3,-1,-1
336688078360,0,-5,2,-7,-2,-3,-1,-1
336688078360,0,-2,-4,-8,-2,0,0,0
336688085831,-1,0,28,12,1,0,-1,-2
336688085831,-1,-4,-10,5,5,1,1,0
336688094831,1,1,-5,1,0,-2,-2,-3
336688094831,1,0,4,-1,-2,-2,0,0
336688109008,-2,1,9,3,-5,0,-2,1
336688109008,0,-4,-13,-16,-3,2,2,1
336688115830,-3,3,4,5,2,-2,0,-1
336688115830,-2,-10,-8,3,0,-1,1,-1
336688131563,-1,0,11,-3,0,-1,-1,-1
336688131563,-5,-2,-18,6,-2,-3,-2,1
336688138328,1,0,11,-2,0,3,1,-1
336688138328,0,1,-7,-6,-2,0,-3,-1
336688154730,0,-4,-5,6,4,-2,0,2
336688154730,-1,1,14,1,0,0,-1,-3
336688156268,-1,3,1,-3,-2,0,-1,0
336688156268,-1,-4,3,2,-3,-1,-2,-1
336688169085,-1,-6,-20,-9,-4,-2,0,-2
336688169085,0,2,25,-2,-1,-2,-1,1
336688175767,0,-2,-13,5,-2,-1,0,1
336688175767,0,10,2,3,8,0,0,1
336688191462,1,-5,-12,1,-1,-1,-1,0
336688191462,-1,-5,5,4,-1,1,-2,-3
336688198352,0,-4,3,-5,0,-4,0,1
336688198352,1,-1,6,5,1,0,1,0
336688214661,-3,-4,-7,-5,0,-1,-1,-1
336688214661,3,0,-3,-5,-1,1,1,-1
336688216250,-2,-13,0,5,2,1,-4,-3
336688216250,2,18,21,-7,-3,1,0,0
336688229022,1,-1,-1,-1,2,-2,-1,-1
336688229022,-2,-3,-8,3,0,-1,-1,-3
336688235869,-2,1,5,1,3,-1,1,1
336688235869,-3,-2,-6,-7,-4,-1,0,1
336688251246,-5,-10,-12,-1,-2,2,-2,-1
336688251246,0,0,8,4,0,-2,-2,-1
336688267313,0,6,-4,-10,-3,-4,0,-1
336688267313,-1,0,4,5,7,0,-1,-3
336688274767,4,14,7,-7,-4,0,-1,1
336688274767,-4,-13,-3,4,4,-2,0,-3
336688276228,0,-5,-11,0,0,2,0,-2
336688276228,-1,-3,-3,-7,-6,-1,-2,0
336688288303,1,0,9,1,3,0,-1,1
336688288303,-2,1,-4,-2,-4,-2,1,1
336688297276,-1,2,-2,9,6,0,2,0
336688297276,-1,-3,5,-8,-3,-2,0,0
336688311542,-1,-6,-5,0,5,2,1,-1
336688311542,-1,12,0,-5,-6,0,-3,0
336688318299,0,-5,-4,-2,-5,-3,-1,0
336688318299,0,1,-3,2,-3,2,-2,-1
336688334683,-3,1,5,3,4,1,-1,-1
336688334683,1,2,0,-1,1,0,2,-1
336688336293,-2,3,4,-3,-4,-2,-2,0
336688336293,-2,-6,-12,2,-4,-5,-1,-2
336688348359,-1,2,2,-6,-3,-2,-1,-1
336688348359,-1,-2,-6,7,4,2,0,-2
336688357310,0,2,2,3,4,1,0,-1
336688357310,-1,-3,7,3,-1,2,1,1
336688371626,-1,4,1,-3,-2,0,-1,-1
336688371626,-1,-13,-7,-3,-7,-2,0,3
336688378383,0,0,-3,-4,-1,-2,-3,-1
336688378383,-5,-1,-5,-1,1,0,-3,0
336688394704,1,-4,6,-6,-2,0,2,-3
336688394704,-1,2,-2,-10,-3,-1,-3,0
336688396222,-1,-2,9,0,-2,2,0,1
336688396222,1,-1,-5,9,6,-1,0,-4
336688408332,-3,-2,-10,-4,-4,-2,0,-2
336688408332,0,2,15,2,1,0,-2,0
336688417305,-2,-1,-5,-3,1,1,0,1
336688417305,-1,4,13,-1,-1,0,0,0
336688431589,-1,-5,-16,5,-3,-2,-2,-1
336688431589,2,1,5,1,-2,1,0,1
336688438331,-1,2,0,-2,-3,-2,-2,0
336688438331,2,-1,-1,2,2,0,2,0
336688455432,-3,-3,10,4,3,0,2,-1
336688455432,-3,1,3,-1,-1,-2,0,-2
336688456971,2,-1,10,1,-4,-1,-1,-1
336688456971,0,-4,-8,-8,-3,0,-1,1
336688468302,2,4,10,9,2,0,-1,0
336688468302,-3,-15,-23,-18,-2,-1,0,-2
336688477286,-1,3,19,7,2,1,0,-1
336688477286,-1,2,2,-3,-6,-2,-2,-2
336688491511,3,-2,-13,3,-5,0,-1,2
336688491511,-1,3,3,0,3,-1,-3,0
336688498398,2,6,-1,-8,-4,1,-1,-1
336688498398,-1,-5,-9,3,6,3,0,0
336688514738,-2,0,20,7,3,-1,1,1
336688514738,0,0,1,2,-1,-1,1,0
336688516304,-2,-6,-17,-5,-4,1,0,0
336688516304,1,5,7,-2,-5,-3,-3,-2
336688528348,1,3,2,2,4,1,1,-1
336688528348,1,-3,-12,3,4,1,-1,-1
336688543320,-2,3,6,8,4,2,1,-2
336688543320,-1,-7,-9,-18,-5,-3,-2,0
336688551564,-1,-3,-4,-3,-3,-1,-2,0
336688551564,1,5,4,3,-1,-2,-1,1
336688558353,0,-2,-3,-4,-2,0,1,-1
336688558353,-3,-6,-26,1,-1,0,1,-1
336688574768,0,-1,-6,-9,-3,0,-1,-2
336688574768,-2,4,17,-3,-4,0,-3,0
336688576225,1,-5,-23,-3,3,-3,0,0
336688576225,-1,-1,12,3,-2,-3,-1,0
336688588329,-1,-3,4,3,0,-1,0,-2
336688588329,1,-3,-6,-2,-2,0,0,2
336688597360,-1,-1,3,5,3,0,-2,-1
336688597360,-1,1,5,-2,1,1,1,-3
336688611543,0,-3,-16,-5,-8,-4,-1,-1
336688611543,0,-2,3,4,-1,0,-1,0
336688618375,0,2,4,0,-1,-3,-4,-1
336688618375,-1,0,-2,-3,-1,-3,0,-2
336688634743,-1,-2,7,15,2,2,-1,-1
336688634743,0,0,-13,-13,-2,-3,1,-1
336688636315,-2,4,8,-2,-5,-2,-1,0
336688636315,-1,-2,0,-7,1,1,-1,2
336688648361,-1,0,3,2,-1,1,-2,-1
336688648361,-3,-1,3,2,-2,1,1,-2
336688657302,-1,-7,-12,-7,-6,-3,1,-2
336688657302,2,5,21,7,3,-1,-2,1
336688671662,-2,5,-5,-5,-2,-1,0,0
336688671662,1,-3,4,0,-1,-2,-3,-1
336688678354,-3,-4,-8,-4,1,1,0,0
336688678354,0,-1,-5,2,-6,-2,0,0
336688694736,-2,-7,-2,5,11,3,-2,-1
336688694736,1,6,2,2,0,-2,2,0
336688696297,-1,3,0,3,-1,0,-1,-1
336688696297,-2,-4,-7,-3,-3,0,0,-1
336688708300,-1,-2,5,0,-4,-3,0,-3
336688708300,-3,-1,-19,-8,0,1,-1,-4
336688717353,1,-2,-2,-3,1,0,-1,1
336688717353,0,1,1,1,4,2,0,1
336688731604,1,-2,-1,-9,-7,-3,-3,0
336688731604,1,1,12,4,-1,0,-1,-1
336688738376,2,2,25,7,0,-2,-2,0
336688738376,-2,-1,-45,-16,1,1,-2,0
336688754792,0,2,23,-3,-3,-1,0,0
336688754792,0,-2,1,6,3,1,-1,-1
336688756211,0,-5,-8,-7,-1,-1,0,-1
336688756211,1,-3,10,2,-1,-2,1,-1
336688768379,-1,-1,-11,2,-1,1,-1,2
336688768379,1,5,-8,-4,-1,0,1,-1
336688777322,1,-1,3,0,-1,-1,-1,0
336688777322,0,-2,0,5,3,1,-2,-2
336688791574,-2,0,-15,-3,1,2,-1,0
336688791574,0,-2,7,3,-3,-2,1,0
336688798379,-2,2,0,2,2,-1,1,0
336688798379,1,3,20,1,-4,0,-2,0
336688813981,0,-2,-15,3,2,-2,1,-2
336688813981,-2,-2,4,1,-1,0,-1,1
336688814752,-3,-2,-7,-2,-3,-2,-3,-2
336688814752,1,0,9,6,0,1,-1,0
336688836533,-1,2,-7,-16,-3,-2,-2,1
336688836533,-1,-2,13,1,0,0,-1,-3
336688837282,-1,-4,-19,-3,-6,-4,-4,0
336688837282,-3,-3,8,6,0,0,1,-3
336688852453,0,-1,-16,-2,3,-1,0,0
336688852453,0,4,6,1,0,-3,0,0
336688858421,1,-1,13,-2,-3,1,1,1
336688858421,2,-6,-21,-4,-2,-1,-1,-2
336688874023,0,9,11,6,1,1,-1,-1
336688874023,-3,-8,-12,-9,-2,0,-2,0
336688874793,0,1,3,-1,-5,-1,0,0
336688874793,1,-1,-3,-8,-1,-2,2,0
336688896442,-1,-2,1,2,1,0,0,1
336688896442,-1,3,2,5,-3,-3,0,0
336688897338,0,-1,-9,0,5,4,0,-2
336688897338,-3,0,-1,-5,-3,-2,0,0
336688912400,1,-1,0,-2,-3,-4,-1,-1
336688912400,-2,-4,0,8,1,1,-1,-1
336688918363,0,-3,0,-6,-6,0,-1,-1
336688918363,-2,5,2,0,-2,0,-2,-2
336688933385,0,-2,22,-5,2,0,1,0
336688933385,1,-6,-39,3,-4,0,0,1
336688940867,0,2,0,-7,9,2,1,-2
336688940867,-1,-4,-6,1,-2,-2,2,1
336688956579,-2,7,5,0,-4,-1,-1,-1
336688956579,-1,-5,10,3,-3,0,-1,-1
336688957300,-2,-2,-19,-12,-7,-1,-2,-1
336688957300,-1,-3,-3,1,4,-1,0,-1
336688972230,-1,-2,7,2,-2,-1,0,-1
336688972230,-2,4,-20,-7,5,2,0,0
336688978399,-2,2,12,6,-2,-3,-2,-2
336688978399,-1,-1,-16,-6,-2,0,-3,0
336688993404,2,0,0,6,1,0,0,-1
336688993404,-1,2,9,-4,0,-1,1,-2
336689000848,1,-2,9,9,-1,-1,-1,2
336689000848,-1,1,-3,-3,0,1,-1,0
336689016350,-4,-13,-16,-7,-2,-2,0,0
336689016350,-1,11,8,0,-3,1,-1,-1
336689023402,2,1,10,-1,5,0,1,-1
336689023402,0,0,-3,5,-5,-3,-3,-2
336689032375,-1,0,-3,0,0,-1,-2,1
336689032375,-2,-6,2,4,7,2,1,-2
336689038353,2,2,7,3,-8,-3,-1,0
336689038353,-1,-6,1,-7,-2,2,-1,-1
336689053395,0,-2,3,1,0,0,1,-2
336689053395,2,3,7,-4,-4,-3,-1,2
336689060866,-4,5,-2,3,4,0,0,1
336689060866,0,-1,9,-3,-4,-1,1,0
336689076542,1,4,-5,-4,-4,-5,-4,-1
336689076542,4,-1,6,8,4,2,-2,-3
336689077380,0,-4,-24,-7,0,-1,-1,-3
336689077380,-1,2,15,8,2,2,-4,-2
336689092370,-2,-4,-22,-9,0,4,0,1
336689092370,-2,-5,-2,-2,-7,-3,0,3
336689098377,-2,0,-3,-2,1,0,-1,0
336689098377,0,0,12,5,0,-1,1,-2
336689113341,-2,-2,-8,-3,0,0,0,-3
336689113341,-3,1,3,4,-1,0,-4,-1
336689120877,-3,-11,-11,-8,-4,-2,1,1
336689120877,-2,3,-3,3,-1,-3,-3,1
336689136390,2,5,10,0,-1,0,-1,-1
336689136390,0,0,-7,-7,6,0,2,-1
336689143376,2,2,5,3,-5,-4,0,-1
336689143376,-1,-3,13,5,3,3,2,0
336689152350,-1,-6,-6,-4,-4,-1,-2,-1
336689152350,-1,-2,-5,-2,-2,-2,-1,2
336689158405,-1,2,3,4,-2,1,-1,1
336689158405,0,1,-3,-5,3,-1,1,-1
336689173364,0,-1,13,4,0,-2,-2,2
336689173364,-1,-5,-3,0,-1,0,3,-1
336689180896,-3,-4,-6,2,1,1,0,-1
336689180896,1,1,-5,-5,-1,1,0,2
336689196528,-3,0,9,3,2,0,3,0
336689196528,0,-1,0,-2,-1,0,-5,-1
336689197281,2,2,6,-3,-3,-4,-1,-3
336689197281,-1,0,-3,6,4,-1,1,1
336689212344,-2,-14,1,-2,-1,0,2,1
336689212344,2,0,0,-4,-1,-1,-1,-2
336689218358,-2,2,-1,2,-4,-1,-2,-1
336689218358,1,2,-7,-2,3,0,-1,-2
336689233382,-2,2,1,4,2,1,-1,-1
336689233382,1,0,-15,-4,0,-1,-1,0
336689240880,-1,-5,-6,-8,-3,1,-1,0
336689240880,-1,-4,-8,1,-5,-4,-4,-2
336689256570,-1,-1,-1,-8,-3,2,0,-1
336689256570,1,-3,-2,-3,1,-2,1,-1
336689257281,-1,3,14,15,6,0,0,-2
336689257281,0,-1,-14,-7,-4,-3,0,-1
336689279051,0,2,1,1,0,-2,-4,0
336689279051,0,3,14,3,-7,-1,-2,0
336689279799,2,-4,-13,0,10,5,1,-3
336689279799,-1,0,7,3,-5,-3,2,-4
336689293379,1,0,-5,-9,1,-4,-2,-3
336689293379,-1,1,3,5,6,-1,0,-1
336689300847,-1,0,8,4,0,-2,0,2
336689300847,-2,0,-6,-7,-5,-2,0,0
336689316652,2,1,1,4,-2,0,-1,1
336689316652,-2,-3,6,-9,-4,-2,-2,-3
336689317313,-2,-4,-8,-4,1,-1,-2,-4
336689317313,-2,0,15,5,2,1,-1,0
336689332409,-3,-2,0,-1,-4,-1,-1,0
336689332409,-2,-3,0,8,5,-1,0,-1
336689338381,0,1,5,-8,-8,-1,-2,-2
336689338381,2,-1,-3,-10,-4,-1,-1,1
336689353365,-1,0,-1,2,-4,1,-2,-3
336689353365,0,-2,-6,4,7,2,3,-1
336689360844,-2,-2,-6,1,-1,-2,0,-1
336689360844,-2,0,2,-2,0,-1,-1,1
336689376505,1,3,-1,-1,-2,-2,-2,2
336689376505,-3,-6,-11,-11,-8,-2,-2,0
336689377329,-1,4,2,7,4,-1,-2,1
336689377329,-1,-6,0,-6,-1,-1,-2,-3
336689392356,0,-2,0,3,0,-1,0,-1
336689392356,0,1,-5,-3,-4,-1,-1,-2
336689398398,0,0,18,-2,-1,1,0,3
336689398398,0,2,-9,6,1,1,1,0
336689413376,0,-3,-6,4,5,1,2,2
336689413376,-1,1,20,8,-1,-1,0,-3
336689420866,-2,-2,-11,-6,-5,-4,0,0
336689420866,1,1,-5,3,0,0,-3,0
336689436581,0,0,3,-9,-4,-2,1,-1
336689436581,1,-1,-3,5,5,-1,-3,1
336689437287,0,-4,5,0,-4,-1,0,0
336689437287,1,8,12,3,-2,-3,0,-1
336689452339,-1,-3,-5,1,-1,0,3,-1
336689452339,-2,-1,-7,-4,-4,-1,-1,-2
336689458366,-2,-1,5,-2,4,1,-1,-1
336689458366,-1,-2,-4,2,1,3,0,1
336689473380,1,0,4,6,-2,-4,-1,-2
336689473380,1,2,-2,-2,6,1,3,0
336689480811,0,-2,-8,4,1,1,-2,2
336689480811,-3,-2,3,-4,2,-2,-2,-3
336689496605,-2,0,2,-4,-4,-2,-1,0
336689496605,-1,0,-6,-3,-5,-2,-3,-3
336689497254,2,2,-5,2,-5,-1,1,-3
336689497254,0,-3,12,-1,6,3,0,0
336689512308,-4,-9,-31,-17,-2,-1,-1,-2
336689512308,0,5,-6,-3,-2,-2,-1,1
336689518378,0,-2,12,0,-3,-2,-1,-1
336689518378,-1,-3,-7,0,-7,-3,-2,0
336689533386,1,-2,2,-12,-1,-1,-2,1
336689533386,0,-2,-1,15,10,1,0,0
336689540917,-2,2,-11,-8,-1,-2,1,1
336689540917,-2,-2,0,-4,4,0,1,0
336689556600,1,0,-2,5,-9,-2,-3,-2
336689556600,0,-2,2,-1,-1,1,-2,-1
336689557357,-1,0,1,4,7,1,1,-1
336689557357,0,-5,-8,-5,-3,-2,0,-1
336689572403,3,7,12,6,0,-1,0,1
336689572403,0,0,2,-9,-8,1,1,3
336689578379,0,-3,-12,1,2,0,-1,0
336689578379,0,1,6,1,3,-1,0,-2
336689593442,-2,2,2,6,2,-2,-5,-3
336689593442,-1,-4,-2,-7,-6,-1,2,-2
336689600910,-1,2,7,6,-2,-2,-1,1
336689600910,-2,-3,-4,0,2,0,-1,1
336689616611,0,0,1,3,2,0,2,0
336689616611,0,-2,-2,0,4,2,-3,-2
336689617333,-1,2,4,-10,-8,-4,-3,-1
336689617333,-1,2,6,8,-2,-4,-5,-1
336689632401,-2,-3,-1,1,5,3,0,1
336689632401,-2,-6,5,-7,-6,-4,-2,-1
336689638416,3,2,-9,-3,-2,-2,4,0
336689638416,2,7,-3,-5,0,2,1,1
336689653390,-1,1,-2,-3,7,4,-4,0
336689653390,-1,-2,-3,7,7,-1,0,1
336689660922,0,-1,1,-1,-1,3,3,-1
336689660922,0,0,7,5,-4,-3,1,-1
336689676529,0,1,-3,1,-3,-3,0,0
336689676529,-1,2,2,-9,-3,1,3,-2
336689677327,0,0,2,13,4,-1,-2,-3
336689677327,-2,-4,0,-3,-2,-1,-2,0
336689692323,-1,-5,-7,-3,1,0,1,-1
336689692323,1,-4,0,5,1,0,-4,-2
336689698365,0,-3,-5,-5,-4,-2,-1,-1
336689698365,2,0,0,3,-1,0,0,-1
336689713366,0,4,-4,-17,-6,-1,1,0
336689713366,-3,0,17,15,3,-2,1,0
336689720833,0,-2,-14,-12,1,0,-1,-2
336689720833,-1,0,4,8,-4,-2,-2,-3
336689736613,-6,-10,-4,3,0,-3,-1,-2
336689736613,1,2,-2,-13,-4,1,0,2
336689737355,-3,-5,-1,-2,2,-2,-3,-2
336689737355,0,-1,-7,-2,1,-1,-1,-2
336689752415,0,2,3,1,1,0,-2,1
336689752415,0,0,1,1,-1,0,1,-1
336689758388,-2,-1,-6,-2,-6,-4,-1,0
336689758388,-1,-1,3,-6,0,1,0,0
336689773430,0,1,-8,9,2,-2,2,-1
336689773430,-1,0,11,-3,-7,-2,-4,0
336689780907,-1,0,-3,9,0,0,0,0
336689780907,-3,-4,-17,-35,-2,-1,0,-3
336689796647,4,-6,15,8,2,-1,0,1
336689796647,-4,7,-21,-5,-4,-3,-3,0
336689797280,2,1,15,7,2,3,-1,2
336689797280,1,-4,-9,2,-2,1,0,-1
336689812308,0,-1,10,3,4,-2,-2,0
336689812308,-1,-5,-14,-4,-3,-1,3,-3
336689818385,-2,0,2,-11,-4,-2,-2,-1
336689818385,-2,1,2,22,17,5,3,0
336689833375,-3,-6,-6,-15,-11,-2,-2,-1
336689833375,1,0,-1,2,-3,-2,-1,-1
336689840912,-1,1,-6,-4,2,1,-2,-4
336689840912,1,-4,-1,1,-4,-3,-2,2
336689855914,-3,10,12,0,-3,-2,1,-3
336689855914,-2,-7,-9,4,3,-2,-2,2
336689863331,2,8,4,0,-4,-1,1,-2
336689863331,-2,-19,1,-6,-5,-2,-3,-1
336689872386,-1,7,-13,-1,-1,0,-1,-2
336689872386,-3,-2,12,-3,1,3,1,1
336689878423,-1,5,0,-3,1,0,-1,-1
336689878423,-1,0,12,9,-4,-2,1,1
336689893382,-1,-2,-10,-2,4,0,1,-1
336689893382,0,-3,6,3,-4,-3,-5,-2
336689900835,-3,-10,-18,-9,4,2,1,-2
336689900835,-1,2,2,-1,-5,-1,-1,0
336689915784,0,2,-6,-3,-9,-2,0,-1
336689915784,3,2,1,-5,3,0,3,3
336689923418,-1,-4,4,9,3,0,-2,-2
336689923418,1,8,-1,-4,-13,-1,-1,0
336689932392,0,-8,-6,-4,7,-1,1,2
336689932392,-1,-1,-2,1,-3,-3,-2,-1
336689938400,0,-3,2,10,7,0,-1,0
336689938400,-2,2,2,-8,-3,-2,-2,-1
336689953393,-1,-6,3,5,0,2,-2,-2
336689953393,3,5,-4,2,-2,-2,1,-1
336689960917,0,-6,-1,-14,-5,-1,0,1
336689960917,-1,0,-5,10,9,2,0,1
336689975923,0,7,17,3,-3,0,-1,1
336689975923,1,0,5,-4,-1,-2,0,-2
336689983382,-3,-4,-4,7,-1,2,0,0
336689983382,1,0,7,0,2,-3,0,-1
336689992291,2,1,1,-2,-5,-1,-2,-2
336689992291,-3,-11,-10,6,11,2,1,-3
336689998424,0,6,12,4,0,-2,0,-1
336689998424,-5,-5,-12,-18,-8,-4,-1,-1
336690013380,0,0,4,21,5,-1,-1,-1
336690013380,1,0,-6,-7,2,1,0,0
336690020880,-2,-2,-5,4,-4,0,0,2
336690020880,-1,3,3,2,0,0,-1,-2
336690035874,0,-1,-10,-6,0,-1,1,-1
336690035874,-2,1,3,5,-2,-2,-4,-2
336690043397,1,-1,-5,-3,2,1,-1,-2
336690043397,0,3,2,-4,-4,0,-1,1
336690059074,-3,-6,-19,-4,-2,-1,-1,-1
336690059074,-2,3,-5,-2,-3,0,-2,2
336690059784,-3,-3,3,-10,-2,-2,-2,-1
336690059784,1,0,-6,12,4,-2,-2,-2
336690073376,0,2,17,0,0,2,1,0
336690073376,0,-5,-16,-12,-2,0,1,1
336690080811,-2,-1,-3,0,-6,-3,-2,-1
336690080811,1,1,13,5,-7,1,1,0
336690095971,-3,-4,-6,5,19,3,0,0
336690095971,2,3,17,2,-5,-1,-2,0
336690104025,-2,5,0,-2,-3,0,0,-1
336690104025,-1,-3,-4,-1,2,2,-2,0
336690119055,0,-3,-9,-20,-17,-5,-1,-1
336690119055,0,0,6,32,15,2,1,-1
336690119899,0,-2,-2,-6,1,0,0,-1
336690119899,-2,2,-3,-1,0,0,-3,-1
336690133438,0,-3,1,1,-2,-3,-2,0
336690133438,-2,1,4,-1,-8,-3,2,-2
336690140911,1,-3,-5,-1,2,0,1,1
336690140911,-2,-3,-11,-8,1,0,-1,-1
336690155820,-2,1,6,-4,0,1,-1,-2
336690155820,-2,-6,4,2,-1,0,-2,0
336690164143,-1,1,0,-4,1,-1,0,-2
336690164143,-1,-2,-7,-5,-3,-2,0,1
336690179144,2,1,-1,6,1,2,2,1
336690179144,-1,-1,-1,-7,-2,-1,-2,-1
336690179901,-1,-3,-2,0,-2,0,1,2
336690179901,-1,0,4,2,0,-1,1,0
336690193421,-3,-3,-3,-5,0,-1,0,-2
336690193421,-2,0,0,2,-1,1,-2,0
336690200836,0,-2,-4,-14,-3,-3,0,-1
336690200836,-2,-1,-7,6,5,-2,-2,-2
336690215935,-3,-1,-4,4,-3,1,-1,0
336690215935,-2,0,1,-15,-5,-2,2,-1
336690224099,0,-1,3,-1,-3,-5,-2,0
336690224099,-1,-2,-4,3,2,1,1,-1
336690239105,-2,-5,3,14,-1,0,-2,-2
336690239105,0,2,-10,-23,-4,-1,-2,0
336690239804,-1,-1,1,3,-2,-1,-3,2
336690239804,0,-1,-1,-4,-4,-1,0,-2
336690253405,2,1,6,6,0,3,2,1
336690253405,-2,-3,-6,-1,1,-1,0,0
336690260921,0,-3,-2,1,-1,0,0,-1
336690260921,0,3,4,2,2,-2,-1,0
336690275932,-1,2,2,-8,-2,-3,-2,-1
336690275932,-1,0,-8,-5,-3,0,-1,-2
336690284140,0,-1,4,4,-1,1,-3,1
336690284140,0,0,1,7,4,1,2,2
336690299102,-1,2,13,-4,5,-2,0,-2
336690299102,-2,-3,-5,-9,-8,-2,0,0
336690299825,-3,1,2,12,2,1,-1,-1
336690299825,0,-2,-3,-8,-4,-1,0,-2
336690313396,1,-2,-4,1,-4,-1,0,2
336690313396,0,-2,-17,2,0,-2,-1,-1
336690320901,0,-1,7,4,2,-4,-2,-1
336690320901,1,-2,3,-4,0,-2,0,-1
336690335922,-2,1,-2,0,0,1,0,0
336690335922,-1,0,10,4,2,2,0,-2
336690343845,0,-1,1,-3,-3,0,0,0
336690343845,-3,-3,0,5,1,-1,-1,1
336690359150,-1,1,-6,-9,0,-2,-4,0
336690359150,-1,0,9,9,6,2,1,-1
336690359867,0,-3,-17,-7,-5,-2,0,-2
336690359867,-3,-1,5,-11,-9,-4,-1,-3
336690373380,-1,0,2,10,11,1,0,0
336690373380,0,1,-2,-1,-4,-3,-3,-1
336690380948,2,2,5,0,3,2,1,1
336690380948,0,-2,-12,-8,-2,1,-1,1
336690395931,1,2,-4,0,6,1,1,1
336690395931,-1,-2,7,4,-2,0,-2,0
336690404149,-3,-1,-5,-7,-1,0,0,-2
336690404149,0,3,14,11,-2,-1,-2,-2
336690419076,-1,-3,-25,-21,-7,-3,-2,-2
336690419076,0,-1,-1,4,0,-1,-2,2
336690419807,0,-4,4,13,5,0,0,-3
336690419807,-1,2,-8,-22,-6,2,0,1
336690433415,-4,0,24,9,3,-1,0,-3
336690433415,-3,2,-1,-3,-4,0,-1,0
336690440800,-2,-3,-1,-5,-5,-2,0,-2
336690440800,-2,-2,0,8,2,0,-2,0
336690455865,0,-2,-7,-2,-1,0,-2,0
336690455865,1,0,3,-1,-2,-3,1,-1
336690464519,-1,2,1,2,-3,1,-1,0
336690464519,2,-3,-7,1,7,-1,3,-2
336690479051,0,0,0,2,-3,1,0,-1
336690479051,-1,-2,5,4,-1,1,1,-1
336690479807,0,-1,-5,-3,5,1,0,0
336690479807,-2,1,-11,-3,-3,0,-1,-1
336690493636,-1,-1,9,4,-4,0,-3,0
336690493636,1,0,-6,-7,-6,-3,0,-3
336690500978,2,1,-6,8,6,0,0,0
336690500978,-2,-2,5,-8,-3,2,2,0
336690515905,1,2,1,3,0,-2,-1,0
336690515905,0,-1,-4,-5,-2,-1,1,1
336690524058,-1,-1,5,8,0,-1,-2,-1
336690524058,-2,-2,-8,-14,0,0,-4,-1
336690539078,-2,-4,-10,-16,-7,-2,-2,1
336690539078,-1,-3,0,4,6,-1,0,-1
336690539802,-1,-3,-1,-9,-5,-1,0,-1
336690539802,0,-2,-1,7,2,3,0,-2
336690554314,1,0,0,3,-7,0,-1,0
336690554314,-3,0,-4,-5,7,2,-2,-1
336690563397,-1,0,3,5,4,-1,0,-1
336690563397,0,-1,8,9,2,-3,-1,-2
336690576349,0,-1,-4,-12,-5,-1,-1,0
336690576349,0,-2,1,5,-3,-1,-2,-2
336690584125,-1,1,-1,-4,-4,-1,1,0
336690584125,-2,-3,-7,0,1,2,-1,0
336690599318,1,0,3,0,0,1,2,0
336690599318,-3,0,2,-3,-1,-1,-3,-1
336690599983,-1,0,1,1,-1,2,-2,1
336690599983,-1,2,8,-3,-3,-2,2,-1
336690613497,-1,-2,-2,5,1,-2,-2,-2
336690613497,2,0,-7,-7,0,-4,-1,-1
336690620862,-2,-3,1,5,-3,0,-1,-1
336690620862,-1,0,-2,-11,2,0,0,-1
336690635872,-1,0,11,5,0,1,0,1
336690635872,0,0,0,2,-3,0,3,0
336690644155,1,2,9,-3,-3,-2,-1,-3
336690644155,2,-3,-6,4,0,0,2,1
336690659125,0,0,4,-3,1,-1,1,-1
336690659125,-1,-4,-8,-3,-1,-1,-4,0
336690659830,-1,-1,4,1,3,1,-2,-2
336690659830,0,3,-7,7,0,-1,0,0
336690673533,-1,-1,4,-7,-1,1,0,0
336690673533,0,-2,-13,-1,1,0,1,-1
336690680920,0,-5,-7,-3,-4,-1,1,-2
336690680920,0,0,1,-3,-6,-5,-2,0
336690695943,-2,-2,-4,-3,1,-5,-6,-2
336690695943,-1,-2,6,10,1,1,2,0
336690704157,-1,-1,-8,-17,-4,-1,0,1
336690704157,-2,0,4,3,2,-2,0,-2
336690719095,-1,-1,2,8,-1,-2,-1,0
336690719095,-2,-1,1,-4,2,4,-1,-1
336690719852,-2,0,-3,-1,-2,-2,0,-1
336690719852,0,-3,-3,-5,-1,0,-4,-2
336690733423,1,1,-4,-1,0,0,0,-2
336690733423,0,1,5,4,-1,-3,1,0
336690740953,-1,-4,-15,-7,-1,0,0,0
336690740953,-1,0,12,7,3,-2,-1,0
336690755964,-4,-2,-8,-8,-2,0,1,-1
336690755964,1,0,7,-2,-3,-1,-1,0
336690764153,1,2,6,0,2,1,0,-1
336690764153,-2,-5,-6,0,-2,-4,-1,1
336690779097,-1,1,10,5,1,0,-2,-1
336690779097,0,-1,-9,2,1,0,1,0
336690779850,-1,-1,-5,-8,-4,-3,-2,-1
336690779850,-2,-7,2,4,2,-1,0,-2
336690793459,1,14,6,-3,3,1,1,-1
336690793459,-2,-4,1,-6,-4,-2,-1,-2
336690800954,1,-2,-6,8,3,0,1,0
336690800954,-1,0,3,3,2,-2,-1,-2
336690815959,2,-8,1,0,-1,-1,-1,-1
336690815959,-1,1,-13,-9,3,3,-2,-1
336690824131,0,3,9,-2,-4,-2,-3,0
336690824131,0,2,7,7,-2,1,0,2
336690838451,-4,-10,-12,4,2,-1,0,-3
336690838451,-1,5,-11,0,0,-1,-2,1
336690846620,1,3,12,7,1,-1,-1,1
336690846620,0,-4,-26,-11,-5,-2,1,0
336690853407,1,3,16,3,0,1,-1,0
336690853407,-2,-6,5,-3,0,0,-3,-2
336690860995,0,-4,-14,-9,-1,0,-1,0
336690860995,0,11,8,3,-3,-5,-2,-2
336690875942,1,-4,-4,-1,-3,-1,-1,0
336690875942,0,5,17,3,-2,0,-2,0
336690884146,1,0,-10,-3,-1,0,-3,-1
336690884146,1,6,-7,-1,1,6,1,-2
336690898487,2,-2,-2,5,-3,-4,3,0
336690898487,-4,2,-18,-11,-5,1,-3,-4
336690906617,-2,-16,8,2,-1,-1,-1,1
336690906617,1,-2,1,4,5,0,-1,-1
336690913499,-1,12,-3,-11,-2,1,-2,0
336690913499,-2,-9,-4,6,0,0,3,1
336690929146,-1,7,7,-8,-7,-2,-3,-3
336690929146,-1,-5,-15,-1,3,0,-1,-1
336690935996,-2,-9,10,3,2,2,1,-1
336690935996,0,1,-18,0,-1,-3,-3,-1
336690944100,-2,-3,-8,2,-2,1,1,-2
336690944100,2,3,29,-2,-2,1,0,2
336690958417,1,7,-20,-3,-1,3,1,0
336690958417,4,4,5,2,2,-1,2,0
336690966590,-1,13,-1,1,1,1,2,4
336690966590,0,-11,6,1,-3,-3,0,-2
336690973412,-1,-3,2,-7,-1,-2,0,0
336690973412,2,1,16,4,0,-1,1,1
336690981057,0,5,-2,0,2,-1,1,-3
336690981057,-6,-19,-20,-5,-4,-1,-3,0
336690995890,-3,6,-2,-2,-1,-3,-2,1
336690995890,-1,2,4,-4,-2,-3,-2,-3
336691004090,2,5,37,7,3,-2,-3,-3
336691004090,-3,-9,-43,-15,-6,-3,-1,-1
336691018457,0,6,11,7,6,0,1,-1
336691018457,-3,-5,18,7,0,1,1,-1
336691026598,0,-10,-30,-17,-4,-1,0,0
336691026598,2,13,17,4,-1,1,-4,-2
336691041588,-1,-7,-7,-2,-5,-1,1,-3
336691041588,-1,-3,1,-6,2,0,-2,2
336691042362,1,-4,-15,4,5,-3,-2,0
336691042362,-3,-3,14,-9,-3,-1,1,1
336691055910,1,1,-6,-2,-8,-1,-1,1
336691055910,-1,-7,-10,1,4,0,0,-1
336691064147,-1,-1,15,10,2,0,0,-1
336691064147,-2,-10,-32,-11,-1,-3,-1,0
336691078447,-1,-7,8,21,3,1,-1,-1
336691078447,1,4,-3,-26,-6,-2,2,0
336691086654,-2,-4,-4,3,-2,1,-3,-1
336691086654,0,7,18,7,3,0,-1,-2
336691101688,0,0,15,15,6,0,-2,-1
336691101688,0,-8,-12,-16,-4,-2,-1,-2
336691102333,0,-1,10,13,-1,0,2,-1
336691102333,-1,2,7,-11,0,1,-1,0
336691115984,-2,-8,-26,-9,-2,-2,-3,0
336691115984,-1,-1,18,22,1,0,-2,-3
336691124163,-2,-1,-4,-15,-3,-4,1,1
336691124163,0,4,9,11,-1,0,-3,-1
336691138478,-1,-2,-6,-4,-1,0,-6,-1
336691138478,0,0,-10,-15,-3,-2,1,1
336691146632,-1,-6,-8,0,-2,2,1,1
336691146632,1,1,-5,3,-3,-1,0,-1
336691161664,-1,-1,-10,-10,-1,-5,-3,-4
336691161664,-1,-1,10,16,3,-1,0,-1
336691162424,-3,1,-9,-14,-1,2,1,-2
336691162424,0,-1,9,8,0,-3,0,0
336691176028,-1,-5,-6,-17,-5,-2,0,-1
336691176028,-2,-3,11,5,1,-2,1,-2
336691184134,1,6,4,0,-1,-1,0,-1
336691184134,0,-1,2,11,4,2,2,0
336691198445,0,-1,0,-10,-2,-3,0,0
336691198445,0,-6,-1,6,-2,1,0,1
336691206565,-2,2,-4,-4,-2,-5,-1,-3
336691206565,0,-1,0,2,-1,3,-1,-2
336691221574,-1,-1,2,4,1,-1,3,-1
336691221574,0,-2,4,-3,-3,-3,-3,-1
336691222330,-2,-1,4,6,4,2,-2,0
336691222330,-1,1,-6,-2,-3,-2,-1,0
336691235993,-1,-1,4,3,-3,0,0,0
336691235993,1,2,-7,-2,-3,0,-2,-1
336691244153,0,-2,14,8,0,-1,0,0
336691244153,0,1,-17,-9,3,2,1,2
336691258448,-1,-4,-4,-1,0,1,-2,-2
336691258448,-3,-2,1,1,-2,-3,1,0
336691266671,-1,-3,-3,-3,2,-2,-1,-2
336691266671,-3,0,2,3,0,0,2,-3
336691281627,-1,2,-6,-1,-1,0,0,-1
336691281627,-4,-13,-6,-2,2,1,-2,-1
336691282349,0,12,12,3,-4,-3,0,-1
336691282349,-3,-8,3,-4,-2,-2,-1,-1
336691295948,-2,-3,-23,-8,-2,-2,-1,0
336691295948,1,-1,0,8,2,1,-3,-1
336691304121,-2,-6,5,0,1,0,-3,2
336691304121,3,4,10,-3,4,-1,0,1
336691318473,0,-7,-44,-7,-5,-1,1,-2
336691318473,2,11,23,9,4,2,-1,0
336691326693,-1,-6,-18,-19,-6,1,0,-1
336691326693,-1,-3,16,29,8,-2,0,-1
336691341621,4,16,23,-3,-2,1,0,0
336691341621,-5,-16,-18,-6,1,-1,0,-1
336691342355,0,-1,4,3,-3,-3,0,1
336691342355,-1,2,-7,-12,-3,-1,0,0
336691355951,-2,-6,6,2,-2,-3,-3,-3
336691355951,-1,-3,-11,-2,-1,-1,0,-2
336691364137,-1,1,9,-2,-1,-1,0,-1
336691364137,0,-2,8,0,-2,-2,2,-6
336691378449,-3,-3,-1,0,3,3,1,-1
336691378449,0,11,13,-3,-4,2,2,1
336691386703,-2,-6,-11,6,5,-2,-3,-3
336691386703,0,7,6,-10,-6,0,-1,-1
336691401508,-1,-3,-12,5,4,1,2,2
336691401508,3,-3,14,-3,-5,1,-1,0
336691402355,-4,8,-5,0,-1,0,-2,3
336691402355,-2,-7,-7,-5,-2,-4,-4,-1
336691415934,-2,-2,16,-6,-7,-2,1,-1
336691415934,2,0,-10,0,14,4,2,1
336691424179,0,-4,-5,8,0,-1,-1,0
336691424179,-2,-2,-8,4,3,0,-2,1
336691438467,-2,2,13,-3,-1,1,2,-1
336691438467,-4,1,-8,-6,-6,-4,-3,-2
336691446658,-2,2,-12,-5,-7,-2,-3,-3
336691446658,1,0,-11,-1,0,0,0,1
336691461635,1,-1,12,7,6,1,0,1
336691461635,-1,2,4,2,-4,-2,0,-1
336691462358,2,1,-1,1,2,1,0,0
336691462358,0,-7,-7,-4,-8,-1,0,0
336691475974,0,0,9,3,5,-2,-1,1
336691475974,-1,3,-1,-3,-6,-2,-5,-3
336691484069,-1,-3,1,-3,0,-2,0,0
336691484069,-1,0,-5,-4,1,1,-1,0
336691498463,2,-2,6,1,0,2,1,0
336691498463,-1,1,-6,-8,-3,-2,0,0
336691506579,2,-5,-9,-8,-1,-2,0,1
336691506579,-2,0,29,6,-2,1,0,-2
336691521640,-2,3,-5,2,2,-1,1,0
336691521640,1,-12,-11,-2,0,0,0,2
336691522361,0,5,15,-12,-8,0,3,-3
336691522361,1,-6,-36,13,15,2,0,-2
336691535872,-2,-2,-1,-9,-8,-3,-3,1
336691535872,-1,0,-4,-2,-1,1,1,-1
336691544187,-1,0,8,3,2,-1,0,-2
336691544187,-1,0,3,-5,-5,-1,-3,0
336691558526,0,-5,-7,3,5,1,-2,-2
336691558526,0,12,4,4,-1,-6,-3,-1
336691566665,4,-6,-2,2,-3,0,-1,2
336691566665,0,2,2,-11,-3,-1,2,-1
336691581678,-1,-5,-8,-3,2,-2,-3,-2
336691581678,-2,0,7,3,0,0,-1,-2
336691582431,-1,0,-1,2,-1,1,-2,-2
336691582431,-2,0,-13,-7,0,0,0,0
336691595997,-2,-2,9,-2,-7,-3,-2,-1
336691595997,0,-1,-3,7,11,3,2,-1
336691604134,0,-4,2,3,-1,1,-1,0
336691604134,1,0,-5,7,-4,-3,-2,-2
336691618452,2,0,14,-6,-3,0,-1,-1
336691618452,0,-8,-35,-2,-5,-4,-2,0
336691626672,1,-2,0,3,3,-3,-2,0
336691626672,0,5,9,-10,-4,0,-3,1
336691641672,-3,0,1,2,3,-1,-1,0
336691641672,0,-4,0,2,-3,0,2,0
336691642408,-1,3,1,-1,1,0,-2,-2
336691642408,0,-5,-17,8,-1,-1,-1,2
336691655969,1,1,2,-24,-5,0,-1,0
336691655969,-1,-2,-2,6,2,0,-1,1
336691664152,-2,-5,0,-8,-3,-2,-2,-2
336691664152,0,8,16,7,1,-2,0,-2
336691678491,-1,-3,-1,2,-1,1,0,-2
336691678491,-1,5,-8,-4,-5,-4,-1,-2
336691686658,-1,-5,5,7,4,2,1,-1
336691686658,1,-3,1,-10,-1,0,3,2
336691701641,1,-3,0,4,-1,1,-1,-2
336691701641,0,8,10,2,-3,-1,0,1
336691702443,-3,0,-3,2,1,-2,-2,1
336691702443,-3,-4,3,-3,-3,-1,-1,0
336691715978,-1,-2,-8,7,3,4,2,1
336691715978,-1,-1,10,-2,1,-1,0,0
336691724152,0,-4,-13,-8,-2,1,-1,-1
336691724152,0,1,3,-4,-3,0,0,0
336691738488,-2,-15,-3,6,0,-4,-1,-1
336691738488,1,5,-1,-1,-1,3,-2,0
336691746730,-1,4,8,-7,-3,-1,-1,-1
336691746730,-1,-5,-10,-5,-2,-2,-2,0
336691761499,2,3,9,5,-2,-1,-2,0
336691761499,1,-2,-15,-5,-4,-1,-3,1
336691769182,-2,-6,4,7,4,-3,0,1
336691769182,-2,-1,0,-9,1,4,0,-1
336691784850,-2,6,-2,4,-1,-2,-1,2
336691784850,-2,-6,2,-8,-5,-3,-1,-3
336691785618,2,1,-4,-2,-3,0,2,1
336691785618,-2,-2,3,9,3,-1,-2,-2
336691798469,-1,4,-6,2,-5,-4,1,0
336691798469,-3,-3,6,-7,0,2,-1,1
336691806676,0,-4,-6,8,1,-2,-1,0
336691806676,-3,3,12,6,3,-1,1,-1
336691821003,2,1,-3,3,-4,-2,1,-1
336691821003,-2,0,-4,-5,-2,-1,-1,-1
336691829181,-2,-2,-5,-8,-5,0,-1,-3
336691829181,2,0,9,8,1,0,0,2
336691836027,0,0,-2,-5,2,2,-2,-1
336691836027,-1,-3,3,1,-2,-1,-1,2
336691844173,-2,-5,-3,-2,0,1,1,1
336691844173,1,-7,1,-4,-3,-1,-4,-1
336691858538,1,11,6,-1,-1,0,1,-1
336691858538,-1,-4,-5,3,0,0,2,-2
336691866696,-1,2,-1,-2,-2,-4,-3,-2
336691866696,-3,-1,0,-8,2,-2,0,-1
336691881045,-3,-3,-9,-5,-1,-2,-1,-1
336691881045,2,0,-2,-6,1,0,2,0
336691889143,0,2,2,13,1,0,1,-2
336691889143,0,-1,4,-11,-5,0,0,0
336691896003,0,-1,-7,3,-6,-1,0,-1
336691896003,1,-1,4,-3,1,-1,-2,-2
336691904963,0,0,5,3,2,0,2,0
336691904963,-3,0,3,-4,-4,1,0,-1
336691918505,0,-1,-10,-4,1,0,-1,0
336691918505,-1,-1,12,3,-2,-2,-1,0
336691927444,-1,-4,-9,6,0,0,0,0
336691927444,1,9,1,-5,-2,-3,0,0
336691941019,-3,-9,-11,-2,3,-1,-1,0
336691941019,0,-1,1,3,1,0,-1,-1
336691949980,-1,5,6,3,0,0,-1,1
336691949980,1,0,-4,2,1,0,-1,-2
336691964816,0,-1,3,0,1,1,-2,0
336691964816,-4,-2,1,3,1,-2,-2,-2
336691966401,-3,0,-10,-12,-3,-1,-2,-1
336691966401,2,1,5,1,-4,-1,-2,-1
336691978495,-3,-12,-9,5,0,-1,0,-1
336691978495,1,2,1,-6,2,-1,0,1
336691987468,-2,1,-1,7,1,0,0,-2
336691987468,0,1,2,5,1,1,0,0
336692000925,-2,0,-6,-13,2,-1,-2,-2
336692000925,-2,3,4,8,3,-1,-2,0
336692009946,0,-3,4,-8,0,0,1,1
336692009946,0,-6,-9,3,-4,-2,0,0
336692024808,1,1,9,-5,-3,1,-2,-2
336692024808,-2,-2,12,6,-6,-2,-1,-2
336692026456,3,-5,-2,0,8,1,2,1
336692026456,-3,8,-28,-3,-1,-1,-2,-4
336692038503,2,5,4,3,-1,-2,-1,2
336692038503,0,0,-12,-7,-1,0,2,0
336692047416,1,-1,14,6,-3,-1,0,1
336692047416,-3,-7,-1,-4,-2,-2,0,2
336692060939,0,1,2,3,0,-1,-2,0
336692060939,0,1,-10,-2,1,0,-2,-1
336692069921,-1,-1,-4,-7,-5,-2,-1,-1
336692069921,-2,-6,3,7,-1,-1,-1,-2
336692084874,-2,3,8,3,0,-1,0,-1
336692084874,-1,-5,-9,-7,-3,-2,-2,0
336692086400,-2,-1,-13,-5,0,0,0,-1
336692086400,-1,5,9,-7,-3,-4,-3,1
336692098411,-2,-7,2,8,-1,0,-1,0
336692098411,0,2,5,-2,0,1,-2,1
336692107521,-1,-4,-7,1,0,0,0,-1
336692107521,1,1,-6,-10,0,-1,-1,-2
336692120944,-1,1,5,8,-2,-1,0,1
336692120944,-1,-2,-10,1,1,1,2,-1
336692129949,0,5,18,-6,-3,-1,-3,0
336692129949,0,-9,-22,1,3,1,1,-2
336692144826,0,-2,8,0,-2,-3,0,-1
336692144826,0,1,-2,-2,-4,-2,0,-1
336692146405,-2,-3,-4,-1,-2,-1,-2,-2
336692146405,-3,-2,2,0,-1,1,2,0
336692158579,1,0,3,-3,1,-1,-1,0
336692158579,-2,1,0,4,3,2,1,0
336692167524,-1,0,1,-4,-1,-2,-2,-2
336692167524,1,0,4,6,-2,0,0,1
336692181006,-2,-5,-6,-1,-1,0,1,-2
336692181006,0,1,5,-2,3,-1,1,0
336692189965,0,0,-5,-5,-2,0,-1,-2
336692189965,0,-3,19,4,2,2,-1,0
336692204824,0,1,-4,-5,0,0,0,-3
336692204824,-4,-5,0,3,-5,-2,-2,-3
336692206355,-1,0,-4,7,4,2,0,0
336692206355,-2,-4,-16,-4,0,-1,1,1
336692218519,-4,-4,8,-6,-2,-1,-3,0
336692218519,1,7,-2,-3,-2,0,0,0
336692227557,1,-6,1,-4,-6,-1,-1,-1
336692227557,-1,1,15,10,2,-2,0,0
336692240873,1,4,-4,-1,-2,-1,-1,0
336692240873,-1,-4,-2,-4,-1,1,-3,0
336692249978,-3,-2,-1,1,0,1,0,-3
336692249978,3,-2,2,-1,-1,-1,-2,-2
336692264774,0,-1,-4,-1,-1,1,0,2
336692264774,0,-2,3,-2,0,-2,-2,0
336692266399,-1,0,-4,2,1,-1,1,0
336692266399,-1,-2,2,-5,-4,-2,-1,0
336692278483,-2,1,-6,4,2,-2,-2,-1
336692278483,-1,-4,0,2,0,-2,2,0
336692293496,2,2,2,-1,3,-1,2,2
336692293496,-1,6,2,-2,-3,-1,-2,-1
336692301012,4,8,8,5,1,-2,0,0
336692301012,-3,-8,-24,-11,-2,0,-2,-2
336692309930,-1,0,3,1,-5,-1,-3,-1
336692309930,4,-5,15,-3,1,-2,-1,1
336692324874,-5,-9,-34,3,1,1,-1,-1
336692324874,2,5,9,2,-1,-2,0,0
336692326435,2,3,-1,-1,1,-1,1,1
336692326435,0,-1,7,0,-2,-2,-2,0
336692338564,-3,-4,0,-6,-2,0,0,-1
336692338564,0,4,-3,2,2,1,1,-1
336692347462,-4,-2,-1,-4,-4,1,0,-1
336692347462,0,-2,-13,4,3,1,1,0
336692360938,1,-1,5,-2,0,-1,-2,-1
336692360938,0,4,-2,0,-1,-2,-1,0
336692369957,-1,0,6,0,0,-2,0,-2
336692369957,0,3,-15,-2,-1,0,2,2
336692384771,0,-3,5,-7,-2,0,2,0
336692384771,-2,-1,-6,6,1,-3,-3,-2
336692386413,-3,-1,4,-1,-3,0,-3,-2
336692386413,-3,-1,7,1,1,1,0,0
336692398474,1,3,17,-2,-2,-2,-1,-3
336692398474,1,-4,-16,1,-3,2,1,0
336692407565,-2,-1,0,-4,-1,-1,-1,-1
336692407565,-4,-1,1,-5,-3,-2,-2,-3
336692421020,-1,5,5,2,1,0,0,1
336692421020,1,-10,7,1,-1,-1,-2,-1
336692430021,3,10,-3,2,4,-2,0,-2
336692430021,-1,-5,-7,-3,-1,1,-2,0
336692444884,-1,0,-12,3,2,-2,-2,-1
336692444884,-1,-3,10,-4,-5,-1,1,0
336692446463,0,-5,-5,5,-2,-3,-1,0
336692446463,0,3,10,5,1,-2,1,-1
336692458489,-1,1,-4,-3,-1,-1,-1,-2
336692458489,0,1,6,2,-2,-1,1,-2
336692467569,0,-1,-2,-2,-1,-2,-1,2
336692467569,1,3,-3,-2,-2,-1,1,0
336692480933,-2,-5,-1,1,1,-1,-2,1
336692480933,-2,0,8,-4,2,-1,-3,-1
336692489975,1,1,-3,0,-2,-1,1,0
336692489975,-3,-15,-23,-8,0,1,0,-2
336692504784,-1,5,8,-1,-2,0,0,1
336692504784,3,-1,0,0,-1,-3,-2,2
336692506451,-1,5,12,2,1,1,1,-1
336692506451,-4,-12,-36,-6,-1,-2,-2,0
336692518513,0,5,0,0,-2,-1,-2,-1
336692518513,-2,-3,-4,-1,-2,0,0,1
336692527444,0,-7,-5,-1,0,-1,0,1
336692527444,-1,3,16,7,2,2,-1,-1
336692540996,0,-2,-9,-6,-1,0,1,1
336692540996,0,2,2,4,2,-1,2,0
336692550007,-1,-4,-4,-1,-1,0,-2,-2
336692550007,1,2,5,-3,2,-3,-1,-1
336692564884,1,-4,-1,1,-1,1,-1,-1
336692564884,1,0,2,-1,-2,1,0,-1
336692566456,-2,-3,-6,-4,2,0,0,-1
336692566456,0,3,6,2,-4,0,-1,0
336692578439,-1,-3,-4,-4,-5,-1,-1,1
336692578439,-1,3,9,6,6,-1,-2,-3
336692587555,-1,-3,-18,-1,-4,1,-3,-2
336692587555,-1,0,1,-5,-2,-3,0,0
336692609876,2,1,7,4,2,0,-1,0
336692609876,0,2,11,-1,-2,0,1,3
336692611435,-2,-12,-14,-1,-3,-1,2,0
336692611435,3,-2,10,3,3,-2,-2,-1
336692624815,-3,2,-6,-1,-1,1,0,-1
336692624815,-1,-3,0,1,-1,-1,-1,0
336692626641,-1,-3,10,2,-1,1,-3,-2
336692626641,0,5,-5,-1,-2,-1,1,0
336692638512,-3,-4,3,-4,-4,1,-1,-1
336692638512,-1,-2,-10,-2,7,3,1,-1
336692647544,0,-1,1,-4,-4,-1,0,2
336692647544,-1,2,3,6,2,2,0,1
336692661030,1,1,-3,-8,-1,-2,-1,-2
336692661030,-1,3,-3,0,-1,-1,-1,-1
336692669986,-1,0,1,-7,-1,-2,-1,-1
336692669986,-1,1,0,4,1,0,-1,-3
336692684862,-1,-4,0,-1,-1,1,0,-1
336692684862,-3,-8,-8,-4,-2,-1,-1,0
336692686465,2,14,20,1,0,-3,-1,0
336692686465,-4,-16,-21,-7,-4,0,-3,0
336692698580,-2,1,10,5,-1,-4,-1,0
336692698580,0,0,-8,-2,-4,0,2,-1
336692707470,2,-6,-3,2,1,1,0,1
336692707470,-1,19,-5,2,0,-1,1,-2
336692721018,-1,-3,11,-3,0,1,-1,1
336692721018,-2,-1,2,-2,-3,0,-3,-1
336692729957,0,-3,-10,-7,-4,-1,-1,-2
336692729957,1,-4,4,3,4,1,2,-1
336692744174,-2,-1,4,7,0,0,0,-2
336692744174,-1,4,0,-3,-4,-3,-1,0
336692751020,-1,-2,-4,-6,-6,-1,-1,-3
336692751020,0,0,6,-2,4,0,1,1
336692758554,-1,1,-10,-1,-2,-1,0,-2
336692758554,-1,-2,4,-1,1,-2,0,0
336692767511,2,1,0,2,1,-1,-1,0
336692767511,-1,-2,15,6,-1,-2,-4,-3
336692781033,0,-3,-23,-14,-2,-1,0,2
336692781033,1,3,15,7,-2,2,1,0
336692790075,-3,-2,-16,-8,1,1,0,-4
336692790075,-2,2,4,1,-3,1,0,2
336692804234,-2,-9,-8,3,0,-2,-1,-1
336692804234,-2,-2,-3,-4,-2,-2,-2,-3
336692811039,0,2,3,-2,6,1,2,2
336692811039,-1,0,1,-1,-5,-1,0,1
336692818539,1,1,3,8,5,0,1,-1
336692818539,1,-6,2,6,1,0,-1,-1
336692827476,-1,-2,0,3,-1,-1,-1,0
336692827476,-1,-3,-11,-12,-4,0,1,-3
336692841024,1,2,11,-2,-3,-1,-2,0
336692841024,0,-1,-9,-3,-1,-1,0,0
336692849998,1,0,-1,0,0,-1,-4,-1
336692849998,0,-2,0,-2,1,0,1,2
336692864235,0,0,2,2,2,0,-1,-1
336692864235,0,-1,-8,-6,-1,-4,1,-1
336692871038,-3,0,-3,-1,-2,-2,-2,-1
336692871038,-1,-5,10,3,3,1,0,-1
336692878584,1,7,2,-2,0,-2,0,1
336692878584,-1,-3,-10,-12,-9,-4,-1,-1
336692887545,0,2,5,4,3,1,1,0
336692887545,-1,0,-3,3,1,-3,0,-1
336692900929,0,2,2,2,3,1,0,-1
336692900929,-1,-6,1,2,4,1,-1,0
336692910008,1,-3,-9,-1,-5,-1,-1,0
336692910008,0,7,1,-7,-4,-2,0,-1
336692924260,-2,-5,-11,-4,0,0,1,0
336692924260,-1,3,5,2,1,3,-2,-1
336692931022,-4,-3,0,2,-1,-1,0,-1
336692931022,-1,-3,-6,0,-1,-2,-3,-2
336692947373,-1,-1,6,-3,-3,-2,-1,0
336692947373,1,-1,-3,6,1,3,2,-1
336692948950,-1,1,3,-5,-2,1,0,-1
336692948950,3,1,6,-4,-3,-2,-2,-1
336692961132,1,-3,-2,-3,-2,-1,0,1
336692961132,1,5,11,2,1,-1,1,0
336692969978,-1,5,1,3,3,-1,-1,0
336692969978,0,-4,-25,-4,0,-2,-2,-1
336692984255,0,0,8,1,0,0,-1,-2
336692984255,0,0,0,1,0,-1,0,-1
336692991056,-1,-2,2,0,-3,0,2,-1
336692991056,0,1,11,0,2,-1,0,-1
336693007359,0,5,-9,-1,-2,-1,-3,-2
336693007359,-3,-4,-4,-9,-5,1,-2,0
336693008949,0,-2,0,5,6,-1,0,1
336693008949,0,2,4,-3,-4,1,2,0
336693021047,-1,-7,-4,0,2,1,-2,-2
336693021047,0,1,-1,-4,-2,-5,0,1
336693030055,-2,-1,1,-4,-2,-1,0,-1
336693030055,4,2,3,0,-4,1,-2,-1
336693044224,1,1,-1,1,1,-2,-1,2
336693044224,-1,-3,1,-5,1,2,1,1
336693051030,-1,0,0,-2,-2,-1,-1,0
336693051030,1,7,7,5,1,-3,0,-1
336693067379,-6,-14,-13,-4,-5,1,0,-2
336693067379,2,6,0,1,-1,-3,-2,0
336693068992,2,-4,8,3,3,0,2,-1
336693068992,-3,-3,18,16,3,-1,-1,-2
336693081005,-5,-6,-33,-21,-3,-1,-1,-2
336693081005,-2,-3,3,-10,-4,-1,-1,2
336693090018,-1,0,3,16,4,0,-2,-1
336693090018,-2,-3,1,5,-1,-2,-2,1
336693104215,1,0,8,-3,-1,-2,0,-1
336693104215,-1,-3,1,-1,0,0,-1,-2
336693111044,1,2,-3,-3,-2,-2,-3,2
336693111044,0,-7,-6,-1,-2,0,0,-1
336693127324,0,6,7,7,0,0,-1,-2
336693127324,0,2,-6,-4,-3,-1,0,-1
336693128977,1,-8,1,-3,-1,0,1,-2
336693128977,-3,4,-8,-6,-1,-1,-3,0
336693140989,0,-1,1,-2,-3,0,-1,1
336693140989,-1,1,1,2,-2,-1,-2,-1
336693150286,-3,-4,-7,2,-1,0,-1,-4
336693150286,1,2,7,-14,0,0,2,1
336693164201,2,7,6,2,-1,-1,2,-1
336693164201,-1,1,-12,5,1,0,0,-1
336693170989,-4,-7,-3,-5,-3,1,-1,1
336693170989,-1,2,0,1,-1,1,-2,1
336693187352,1,-1,5,-2,-1,-3,0,1
336693187352,0,-2,-8,5,1,-3,-3,-2
336693188939,-2,2,-5,-6,-1,-3,1,-2
336693188939,-2,-2,-9,-4,-3,1,-3,-3
336693201293,-1,-4,15,10,0,0,2,0
336693201293,0,-6,-25,-7,-2,-1,-3,-1
336693209968,1,2,-1,-3,-2,0,0,0
336693209968,1,-4,2,0,0,-1,0,0
336693224237,1,3,3,1,-1,1,-1,-2
336693224237,-2,2,9,1,2,1,0,0
336693230963,-2,-2,-4,0,-3,1,-4,-1
336693230963,-1,0,-6,-4,-1,-3,0,-2
336693247340,-2,-3,-3,-4,1,-2,-1,-1
336693247340,-1,-4,8,2,0,0,1,3
336693248912,1,5,1,-2,-2,-1,1,1
336693248912,-3,-4,-1,-1,0,-1,-1,-1
336693261009,-1,1,2,-2,-1,1,0,-1
336693261009,-3,-6,5,6,0,-2,1,-1
336693269973,1,11,8,3,0,-1,0,1
336693269973,-2,-1,-12,-7,-2,0,0,0
336693284461,-3,-3,5,3,-1,0,-1,0
336693284461,-1,-1,2,-3,-2,-3,0,-3
336693291018,-2,-4,-19,0,0,0,-1,-2
336693291018,-1,-6,-1,-6,1,1,0,1
336693307332,2,3,-3,1,-1,-1,-1,-1
336693307332,1,1,4,-1,-3,-1,-1,-2
336693308944,0,-3,1,2,-1,0,0,-1
336693308944,2,0,-2,4,0,1,-1,0
336693320960,-1,-3,0,-5,2,-2,-1,0
336693320960,-1,4,-6,-1,-1,1,-1,-1
336693329953,1,-4,11,-1,-2,-4,-1,-2
336693329953,1,0,-10,2,-2,-1,0,0
336693344279,-1,2,3,-1,-3,-2,0,-1
336693344279,0,0,-2,-2,3,1,0,-1
336693351030,-2,1,15,0,-3,0,-1,-2
336693351030,-1,-2,1,3,-2,-1,0,-2
336693367388,0,8,-6,-7,-4,-2,-2,-1
336693367388,0,-7,0,1,1,1,-1,-1
336693368989,0,-2,-10,-2,2,-1,1,-1
336693368989,0,-1,8,-1,-3,0,4,-2
336693381079,-2,-4,0,-2,3,2,-1,1
336693381079,0,1,-2,2,-2,-1,-1,-1
336693389982,-2,0,5,-7,-4,-2,-1,-1
336693389982,-2,-4,-6,4,2,-1,-1,-2
336693404264,-2,-2,0,3,-3,0,0,-1
336693404264,1,1,-1,-3,3,-4,-2,0
336693411050,0,0,4,0,0,1,1,-1
336693411050,-2,0,5,-1,-2,-1,-1,-1
336693427367,1,-4,-9,3,3,-1,-1,0
336693427367,-1,0,9,-1,-3,-3,-1,-2
336693429006,0,-2,-6,-6,-2,0,-2,-2
336693429006,0,0,-7,-1,4,0,-1,-1
336693441020,0,1,5,2,-3,-2,1,0
336693441020,-1,-2,0,-10,-3,1,0,-1
336693450084,-1,-5,-11,3,2,0,-1,1
336693450084,0,2,5,-5,-2,-1,-1,0
336693464193,-1,-1,-4,4,1,-1,-2,-1
336693464193,1,1,1,2,4,1,0,-1
336693471040,3,6,0,-5,-4,0,0,1
336693471040,0,1,-5,1,-4,-1,-2,-1
336693487353,-1,-3,1,-6,-1,-2,0,-2
336693487353,-1,-4,12,6,2,2,-1,1
336693488984,-3,13,14,-1,-3,-3,0,-2
336693488984,-1,-8,-15,-5,-2,2,2,-2
336693500996,-2,0,-4,1,-1,0,0,0
336693500996,-1,1,1,-1,-7,-3,-3,0
336693510029,-2,-7,-10,1,3,1,-1,-2
336693510029,0,2,11,0,1,0,-1,1
336693524144,2,1,-2,1,-1,-2,0,-2
336693524144,-1,-3,-3,-3,1,0,-1,-2
336693530991,2,-4,4,0,2,-1,-3,-2
336693530991,-2,0,-4,-3,-1,-2,-2,-1
336693547455,-1,-1,-7,2,-1,-1,0,-1
336693547455,-1,3,4,0,-2,-1,2,-1
336693549005,-2,-2,-2,0,0,-1,-1,-1
336693549005,2,-1,3,4,1,0,0,2
336693561032,-4,-1,0,-1,-1,-1,0,-1
336693561032,0,2,0,-2,-1,-3,-2,-1
336693570040,-2,-5,-1,0,1,0,0,1
336693570040,0,1,2,-6,3,0,0,0
336693584297,1,-3,4,7,-1,1,1,1
336693584297,-1,10,-2,-2,2,-2,1,-1
336693591049,-2,-3,-1,-2,-1,-1,-2,-2
336693591049,-1,2,2,11,4,-3,-6,-2
336693607354,2,-6,1,-9,5,0,0,-1
336693607354,-2,8,-2,-7,-7,-2,-2,1
336693608956,1,-4,-5,-3,-2,-2,-2,1
336693608956,-2,-2,3,5,1,1,1,-1
336693621035,2,1,5,-6,0,-1,-1,0
336693621035,0,-8,-20,4,2,2,0,1
336693629950,1,0,-1,-4,-1,0,-1,1
336693629950,-1,-4,1,2,-1,-1,-2,-1
336693644247,-1,4,-9,-12,-4,-3,0,-1
336693644247,0,-5,-2,0,0,2,0,-2
336693651062,1,1,-2,2,0,1,-1,0
336693651062,-1,-4,0,-2,-3,0,2,-1
336693666725,-3,-3,0,0,-4,-1,-3,-1
336693666725,0,-2,-4,3,3,-3,-2,-1
336693673601,0,2,4,4,-6,-1,1,0
336693673601,-1,1,-2,-15,4,0,-2,-1
336693681107,-1,-5,-1,12,6,2,-2,1
336693681107,-1,-2,1,-8,-5,-2,1,0
336693690029,-1,-10,2,-3,-2,-2,-1,-3
336693690029,-2,15,2,1,-3,-2,1,-1
336693704245,-3,-8,-3,-2,0,1,-2,0
336693704245,3,-5,0,10,3,-1,0,0
336693711072,-3,2,-8,-13,0,0,1,0
336693711072,0,-3,2,-1,-5,-3,-2,-2
336693726789,-1,2,4,5,-1,1,1,-1
336693726789,1,0,3,6,0,0,0,2
336693733612,-2,-9,-2,-5,4,3,0,0
336693733612,-1,-3,-5,-2,-3,-2,0,-3
336693741073,1,7,0,8,0,1,0,3
336693741073,-1,-5,-4,-6,-1,-1,-2,-2
336693750045,0,3,2,5,1,-2,0,-1
336693750045,0,-6,8,-8,-3,-2,0,-2
336693764289,0,2,-2,1,-1,0,-2,0
336693764289,1,1,1,-2,1,1,0,1
336693771044,-2,4,7,8,0,-2,-2,-1
336693771044,-1,-8,-17,-8,1,0,0,-2
336693786806,-2,6,24,-6,-7,-7,-2,-1
336693786806,-2,-1,2,4,2,0,0,-1
336693793608,1,3,2,-2,-3,0,0,0
336693793608,1,-1,8,12,1,-1,1,2
336693801062,1,-1,-14,-15,0,-2,1,0
336693801062,-1,-4,2,-2,-6,-2,-2,-1
336693810060,-2,2,4,-4,-2,-2,0,0
336693810060,0,-1,0,2,-4,0,-3,0
336693824185,-1,-5,-14,-2,0,0,-1,-2
336693824185,-1,0,4,-3,-3,-1,-2,-2
336693831065,-1,-5,-3,-1,-3,-2,0,-2
336693831065,-1,-3,-2,-1,0,1,2,1
336693846753,-1,6,5,2,-1,1,0,-1
336693846753,-2,-7,-16,-6,-2,1,0,0
336693853610,0,-2,-6,4,2,-2,0,-1
336693853610,-1,-1,-6,-5,2,-1,0,1
336693869909,0,-2,17,6,-1,1,-1,0
336693869909,-2,0,-16,-4,-2,0,-1,-2
336693871537,-1,-1,3,0,-1,1,-2,0
336693871537,1,0,-5,-4,-2,0,-2,-2
336693884238,-3,-6,-22,0,2,-3,1,0
336693884238,-1,1,8,-2,-1,-1,-1,-2
336693891034,-1,1,-5,4,5,1,0,0
336693891034,-2,-2,2,-1,-3,1,-3,-4
336693906738,0,-1,3,2,0,-3,-2,-1
336693906738,-1,-1,2,-5,-3,-3,3,-1
336693913609,0,1,-6,1,0,-1,-1,-1
336693913609,-2,0,8,3,-1,1,-2,1
336693929867,-3,0,9,-10,-3,0,-2,-2
336693929867,-3,-1,-6,6,4,0,1,1
336693931560,-1,1,21,2,-5,0,-1,1
336693931560,0,-6,-39,-10,-1,-2,1,-2
336693944288,-4,2,18,2,-3,-1,-2,-2
336693944288,1,-2,5,1,-1,2,0,0
336693951160,-3,0,-1,3,3,0,0,-1
336693951160,-1,-3,-4,-2,-1,0,1,1
336693966781,2,-4,-7,0,0,1,1,-2
336693966781,2,1,1,3,2,-1,-1,0
336693973619,1,2,-4,-5,-2,-4,-1,-1
336693973619,0,1,9,2,-2,-2,-1,0
336693989933,-1,-2,-9,-3,-1,1,0,-3
336693989933,0,-2,3,3,-1,0,0,-2
336693991543,3,-1,-8,-8,-2,0,-2,1
336693991543,-2,-3,8,4,-1,-2,-2,1
336694004220,-2,-5,-5,6,2,-1,1,1
336694004220,-3,2,4,-1,-2,0,-3,1
336694011054,0,-5,4,1,1,-1,-1,-1
336694011054,-4,4,0,-7,-6,0,1,-3
336694026788,1,-5,-6,-4,1,2,-3,0
336694026788,-2,0,0,5,-2,1,-4,-1
336694033602,-1,-2,-5,-6,-2,-3,-2,0
336694033602,2,0,-1,8,2,0,0,1
336694049930,-2,4,8,-6,-7,-3,0,0
336694049930,-2,1,0,6,2,0,0,-1
336694051521,-1,0,-13,-19,-3,1,-1,-3
336694051521,-2,-2,0,-11,-5,0,0,-1
336694064270,-1,0,-2,7,1,1,0,-1
336694064270,-2,-7,-7,1,0,-1,1,1
336694071106,-2,-3,3,9,0,0,0,0
336694071106,1,0,3,-3,1,0,1,-1
336694086696,0,0,-4,-2,0,-2,-2,-1
336694086696,1,-1,9,5,-2,-3,0,1
336694093535,-2,-3,-5,-2,1,2,-1,1
336694093535,1,5,4,0,1,-2,0,1
336694109858,1,0,-4,-1,-1,-2,-2,-1
336694109858,1,-1,1,-6,-2,1,-2,-3
336694111505,1,0,-5,-2,-3,0,-2,1
336694111505,1,-3,2,5,3,1,-1,2
336694124240,1,4,1,-3,-2,-2,-1,0
336694124240,-1,-7,-2,-3,0,-1,2,-1
336694131023,-1,14,8,-1,-4,-3,-1,-2
336694131023,-3,-5,-1,7,4,0,0,-3
336694146749,1,1,-2,-1,-4,1,0,2
336694146749,-3,3,-2,-1,3,-2,2,-2
336694154007,-2,-2,-7,-1,-6,0,0,1
336694154007,-1,3,9,-6,-1,-3,1,-2
336694169893,1,-3,-2,5,4,1,1,-3
336694169893,1,-1,-6,-4,1,1,1,0
336694171495,0,-3,3,1,-2,-3,0,-1
336694171495,-1,0,0,1,-3,-2,-2,-1
336694184222,-1,-5,-4,1,1,0,-1,2
336694184222,1,1,2,-3,-1,-1,-2,0
336694191019,-2,-4,-4,2,2,0,0,-3
336694191019,0,-2,3,-2,-1,-1,-1,2
336694206719,0,-1,-1,0,0,0,1,-1
336694206719,0,-1,-1,-6,-3,0,0,1
336694213560,1,5,9,9,3,-2,-2,-1
336694213560,0,-2,-4,-3,-2,-1,-2,-4
336694229812,0,-11,-10,-13,0,0,0,1
336694229812,1,15,11,-3,0,0,0,-1
336694231600,1,-7,-7,18,2,-2,-1,0
336694231600,-1,4,10,-13,-3,0,-4,-1
336694244256,-1,-4,-17,-8,-4,0,1,0
336694244256,-2,-4,-3,13,0,1,-1,-1
336694251067,0,1,6,-12,3,-1,2,-2
336694251067,0,-1,-3,1,-2,0,-1,0
336694266763,-2,0,7,-1,-2,-2,-3,-1
336694266763,-2,-2,-3,-6,0,1,-1,1
336694273639,0,3,-1,5,-1,2,-1,-1
336694273639,-1,-2,-1,1,1,0,0,3
336694289876,-1,0,7,-5,-3,-4,1,0
336694289876,1,-1,-1,5,-2,-2,0,-2
336694291502,-3,-3,1,-6,-1,0,-1,0
336694291502,-1,-1,-8,0,-3,1,-1,-1
336694304218,1,3,2,0,0,-1,0,-1
336694304218,-1,-4,-3,2,0,0,-1,-1
336694311051,-1,0,-3,-3,0,-1,0,-1
336694311051,4,5,1,3,1,0,1,-1
336694326697,-2,-3,-2,2,-1,-2,-2,-1
336694326697,1,-2,-5,-1,-3,-1,-1,-3
336694333546,-2,-4,6,-9,-4,-3,-1,2
336694333546,-1,-3,-10,3,3,1,0,1
336694349840,-2,0,8,6,3,-1,-1,0
336694349840,-1,-1,-5,-5,-2,-1,-3,-1
336694351496,1,1,-6,-13,-1,0,1,0
336694351496,4,-2,8,10,0,0,0,0
336694363524,-2,-1,-14,-9,-3,-1,1,-2
336694363524,-3,-3,8,4,2,1,0,0
336694372528,-1,1,2,8,1,-1,-2,-1
336694372528,-4,-4,-3,-6,-1,-1,0,-1
336694390148,1,-1,-3,4,1,-1,-2,-2
336694390148,0,5,2,-1,-4,-2,-2,-2
336694393550,1,-6,-5,2,6,1,3,-2
336694393550,-2,1,14,-7,-2,-1,-2,-2
336694409903,-1,1,-5,6,-1,-1,-2,1
336694409903,-1,1,-1,-4,1,-6,1,1
336694411492,-1,2,-3,-3,-3,0,0,0
336694411492,-1,-4,-1,8,1,2,0,-1
336694423572,-2,1,5,1,-1,1,-3,-1
336694423572,0,-3,-6,-8,0,-3,-1,1
336694432507,-2,-1,1,-1,-3,-1,-3,-3
336694432507,-1,-1,-7,-4,-5,-2,3,-2
336694446721,0,3,8,2,5,-1,2,-2
336694446721,-2,-1,-3,0,-1,0,-1,2
336694453542,0,-1,-1,-3,0,2,-1,-1
336694453542,0,0,-5,0,2,-2,-1,-2
336694469916,-2,0,2,-5,-3,-2,-1,-1
336694469916,-1,1,4,4,-2,1,-2,-2
336694471582,1,-1,-4,-2,1,0,1,1
336694471582,2,0,5,-3,-6,0,-1,0
336694483555,0,1,-2,5,6,2,1,0
336694483555,0,-4,2,-7,-4,-2,-1,-1
336694492506,0,-2,0,-2,-4,-1,-2,-1
336694492506,-1,7,-2,-2,1,-2,-1,0
336694506784,0,-1,2,-2,-3,0,-2,-1
336694506784,0,-4,-3,-2,0,0,0,-1
336694513562,2,-2,-4,2,2,-1,1,-2
336694513562,-2,-1,5,2,-1,1,-2,0
336694529987,-1,-2,-13,-8,-4,0,-1,-2
336694529987,-1,2,3,5,1,-1,-1,3
336694531514,-2,-1,-1,-7,-1,-2,0,2
336694531514,1,-1,-6,-2,3,0,-3,-1
336694543656,1,-2,6,9,-1,1,2,-1
336694543656,1,-2,0,-5,-6,-1,-2,-3
336694552574,-2,0,-2,3,1,1,-1,-2
336694552574,0,-1,-5,-1,-2,-4,-2,0
336694566741,2,-1,-5,-4,2,0,0,1
336694566741,-2,1,4,-5,1,-1,0,-3
336694573594,-1,1,0,1,-4,-3,1,-1
336694573594,-1,0,-3,3,0,0,1,-1
336694589884,-1,-2,-3,-6,-1,2,1,0
336694589884,-2,-2,-3,0,0,0,-2,0
336694591509,0,-1,1,0,0,0,-2,-1
336694591509,-2,-2,-4,-2,-1,0,1,0
336694603634,-1,-3,6,-1,-2,-1,-3,0
336694603634,-2,5,1,0,-2,-1,0,-2
336694612515,0,-4,-3,4,5,-1,-3,0
336694612515,-2,-1,3,-9,-4,-1,0,-1
336694626778,2,0,2,2,0,1,0,-1
336694626778,-2,-3,-2,-3,-1,0,-1,0
336694633557,-2,0,-1,4,-1,0,-3,-2
336694633557,1,-2,7,3,0,-1,-4,-1
336694649252,-3,1,-11,-9,-3,-2,-2,-3
336694649252,0,-4,5,-3,-2,-2,1,-1
336694656047,-4,5,-4,9,2,0,1,2
336694656047,1,-3,-8,-4,-1,0,-1,0
336694663538,-2,2,5,6,2,0,0,1
336694663538,0,-4,0,0,-1,1,0,1
336694672512,0,-3,3,-7,-3,1,2,0
336694672512,-1,-1,-3,0,-2,-1,-2,-1
336694686822,0,-2,0,2,1,-3,-2,-2
336694686822,1,1,-12,-2,0,-1,2,-1
336694693588,0,1,2,2,-2,0,-2,0
336694693588,-2,-4,-2,3,2,-1,1,0
336694709252,1,1,1,-3,0,-1,-2,2
336694709252,0,-2,-2,-2,-2,-1,-2,-1
336694716045,-1,-1,0,-3,-3,0,-1,-1
336694716045,1,-6,-2,3,1,-2,-1,-1
336694723695,-3,-2,-1,1,4,0,0,1
336694723695,-1,0,-1,0,1,-1,0,1
336694732671,0,3,5,-4,-6,-2,-1,-2
336694732671,1,-1,-7,2,3,-1,2,1
336694746755,-1,0,2,6,0,0,-1,0
336694746755,-1,0,4,-5,-1,-2,-2,-2
336694753551,-1,-2,4,-4,1,-1,2,2
336694753551,-1,-1,1,-3,-2,2,-3,-1
336694769237,1,-2,1,0,-4,0,0,-1
336694769237,-2,-10,0,5,2,2,0,-1
336694776015,1,7,8,3,-3,-1,-1,-1
336694776015,-2,1,-7,-7,-2,-3,-1,-2
336694792401,0,-4,1,-3,0,-2,-1,0
336694792401,0,-4,-13,0,-1,0,0,0
336694794053,-1,-5,-4,-2,-1,-1,-2,-1
336694794053,-1,3,3,4,2,1,0,-1
336694806770,-1,-2,-6,2,-3,-2,-1,0
336694806770,0,4,5,2,1,0,0,0
336694813580,1,-6,-3,-6,-1,-1,-2,-1
336694813580,-2,1,-3,-2,-1,1,-3,0
336694829264,0,4,-1,-2,-1,-2,1,-2
336694829264,-1,1,2,-4,1,0,2,-1
336694836092,-2,-2,8,6,2,0,0,-1
336694836092,0,-3,-23,-4,-2,2,0,-1
336694852359,-1,2,4,-1,-3,-1,0,-1
336694852359,-2,-3,4,0,2,1,0,1
336694853980,0,-5,-6,-6,-5,-3,-2,0
336694853980,-3,0,7,3,2,-3,0,-2
336694866784,-2,-1,6,-4,-3,0,0,1
336694866784,2,-1,-4,1,-3,-2,-2,-2
336694873630,-1,-2,-4,2,8,-1,-1,0
336694873630,0,-3,1,-1,-5,-2,1,1
336694889337,0,0,-4,-4,1,0,-2,0
336694889337,0,4,9,6,-1,-2,-3,-2
336694896038,0,-3,-5,-8,0,-1,1,0
336694896038,1,1,6,0,1,0,-1,1
336694912446,-1,-5,-8,3,4,2,0,-1
336694912446,-2,-2,2,-5,-2,-1,0,-1
336694913998,-1,0,-10,7,-3,1,0,0
336694913998,-2,-1,8,1,3,0,-1,-2
336694927313,1,-3,3,-2,0,-2,1,-1
336694927313,-1,3,-18,-3,1,0,-2,0
336694933543,-1,-3,2,-4,-1,-2,1,-2
336694933543,1,1,7,-3,-3,-3,0,0
336694949262,-2,-2,2,7,-1,0,0,-2
336694949262,0,-4,-2,-5,-2,-1,0,0
336694956074,-2,-2,-3,1,3,-3,0,-1
336694956074,-1,3,1,-5,0,1,-3,2
336694972477,-2,-1,-11,2,0,-2,-1,-1
336694972477,-2,2,11,0,0,0,0,0
336694973969,-1,-1,-5,0,-4,-2,-2,0
336694973969,-1,1,0,-1,-1,-2,1,-1
336694986808,0,-2,2,1,0,-2,1,-3
336694986808,1,-1,0,-2,1,-1,1,-2
336694993526,-2,-1,7,3,-1,1,-1,-1
336694993526,2,-3,-9,-4,-3,-1,0,0
336695009290,-1,2,5,-2,-2,-1,-1,0
336695009290,0,0,-5,-1,2,-1,-1,1
336695016080,0,-1,3,-1,1,0,-1,-2
336695016080,0,1,4,-1,-4,-2,-1,-1
336695031712,-1,2,5,1,0,0,-2,-1
336695031712,1,-5,-17,-3,2,0,2,1
336695032496,-1,12,1,0,-5,0,-3,-2
336695032496,-2,-4,-2,2,-1,-1,-2,-1
336695047556,-1,-1,6,-7,0,0,1,0
336695047556,-2,0,-11,0,-1,0,-5,-3
336695053558,-2,-6,0,5,1,-1,0,1
336695053558,-3,3,-2,-3,-2,-2,-3,-1
336695068650,0,1,3,3,0,-2,0,-1
336695068650,-2,-5,-1,-6,-4,-1,-2,-3
336695076041,-1,-3,1,2,-1,-1,-3,0
336695076041,-1,-2,3,3,1,-1,0,-1
336695091731,0,-4,-7,-3,3,1,-2,0
336695091731,1,1,6,4,-3,1,-1,0
336695092565,0,-3,-9,-5,-2,-2,-2,-1
336695092565,-1,0,4,5,1,1,0,1
336695107562,-2,0,-8,-6,-2,-4,-2,-1
336695107562,-1,-4,4,-2,2,-2,1,-1
336695113539,0,2,2,2,-1,0,0,-2
336695113539,-1,-1,0,-5,-1,1,-1,-5
336695128657,-1,-1,-4,-6,-1,-1,-3,0
336695128657,0,4,4,7,1,0,-1,0
336695136156,-4,-3,-4,-1,0,-1,0,-1
336695136156,-1,-3,6,8,2,-1,-1,0
336695151746,0,-3,-15,-5,-7,-4,-2,0
336695151746,-1,4,10,-3,5,2,0,0
336695152535,0,-6,3,2,1,-2,-2,2
336695152535,0,0,-11,-8,1,-2,3,1
336695167565,0,-2,11,4,-4,-2,-2,0
336695167565,-1,2,-4,-3,-1,-1,-2,1
336695173596,0,0,1,-1,0,-1,-1,-2
336695173596,0,-1,0,-1,-1,1,0,1
336695188621,1,2,3,3,-2,-2,2,0
336695188621,0,3,3,1,0,1,0,1
336695196062,1,-3,-5,-5,-1,-1,1,2
336695196062,-1,0,-2,1,1,1,1,0
336695211727,1,-2,-2,-1,0,1,0,-1
336695211727,-1,-3,-3,0,-4,-1,-2,-1
336695212553,1,2,-3,-1,0,-2,0,0
336695212553,-1,-1,-5,-1,-1,1,-1,1
336695227531,-1,1,-4,-3,-1,0,1,-2
336695227531,-1,-3,10,4,-2,-1,-3,-1
336695233502,0,-2,-3,-4,-2,1,0,-2
336695233502,-1,-2,12,1,-1,0,-1,-2
336695248600,-1,1,-5,-1,3,1,-1,1
336695248600,-4,-5,6,1,-1,-3,0,-1
336695256045,-3,-5,-12,-6,2,0,-1,0
336695256045,1,10,1,1,-2,-3,0,2
336695271732,-2,-5,9,-4,0,2,0,-2
336695271732,0,0,-8,0,-1,0,0,0
336695272535,-1,1,8,-3,-4,-2,0,0
336695272535,-1,0,-7,0,2,0,0,-3
336695287557,-2,0,-4,-4,-3,-1,-2,-1
336695287557,-1,-4,2,-3,-3,-3,0,-2
336695293574,0,2,2,3,2,0,1,-2
336695293574,1,-3,1,-2,-1,-2,1,-1
336695308594,1,-2,-2,2,-1,-2,1,2
336695308594,0,0,-1,-2,-2,-1,1,-2
336695316103,1,-3,-1,0,1,-1,0,1
336695316103,-2,-5,-3,0,-2,-1,-1,-2
336695331734,-1,-1,-6,-5,-1,-1,-1,-1
336695331734,0,1,1,1,3,0,-2,-2
336695332560,0,-1,-14,-3,-2,-1,1,0
336695332560,1,0,0,-3,1,-1,-1,-2
336695347749,-1,4,-1,6,0,-2,-2,-1
336695347749,1,-2,1,0,0,2,-1,-2
336695353539,-1,-1,-7,-2,-2,-2,0,0
336695353539,0,-1,9,0,-4,0,0,0
336695368608,-1,-3,-17,-6,-2,0,-2,-1
336695368608,-1,3,2,2,0,0,-1,1
336695376110,-2,-2,6,5,2,1,0,-1
336695376110,-2,-4,-8,-3,0,-3,-1,-2
336695391765,-1,1,10,3,0,-1,3,-1
336695391765,0,-3,-10,-4,-6,0,-1,1
336695392569,0,0,2,-3,-2,-2,-2,-1
336695392569,2,-1,0,1,1,-2,-2,1
336695407532,0,-1,2,-1,2,1,-1,-1
336695407532,0,0,-2,-1,0,-3,-2,-1
336695413606,1,0,1,1,-2,1,-1,-1
336695413606,-2,-1,-9,1,-3,-2,-2,-5
336695428581,0,-1,13,4,0,1,1,0
336695428581,0,-1,-9,-3,0,-1,2,0
336695436047,-2,1,7,1,-4,-2,-2,-2
336695436047,-1,-1,-7,-7,-2,0,-1,2
336695451730,0,0,21,5,-1,0,0,-4
336695451730,-1,-1,-6,-2,-3,0,-1,-1
336695452491,0,1,0,1,4,-2,1,1
336695452491,-1,-4,-3,-2,0,0,0,2
336695467582,0,1,-6,1,1,0,0,0
336695467582,-1,2,11,1,-1,-1,1,0
336695473523,-1,-3,-10,-4,-1,3,-1,-2
336695473523,0,1,5,3,-3,-1,-2,-2
336695488567,0,-2,-3,-4,-1,-1,-1,0
336695488567,-1,0,-2,2,1,0,-1,1
336695496056,0,-2,-2,-5,-2,-1,-1,-1
336695496056,1,-1,3,2,3,1,1,-1
336695511734,-2,-5,-9,3,-1,-2,-1,-1
336695511734,-1,1,-8,-3,1,0,-1,-1
336695512517,-2,0,10,3,0,0,-1,2
336695512517,-3,0,-2,-9,-5,1,0,0
336695528507,-2,-2,3,3,1,-2,1,-1
336695528507,1,-3,-13,1,0,0,0,-1
336695533591,-3,-2,6,-3,-5,-3,-2,-1
336695533591,-1,-1,2,5,5,1,1,1
336695548576,0,-1,-16,-3,-2,0,-4,0
336695548576,-1,4,1,-10,-3,0,-2,-3
336695556123,2,-1,0,3,2,2,2,-1
336695556123,1,-2,-1,-2,2,2,0,0
336695571098,-1,1,-3,-5,-2,-1,-1,1
336695571098,1,-2,8,6,-1,0,-1,-1
336695578580,-1,2,-6,0,0,-2,-1,2
336695578580,-1,1,6,0,-1,0,0,0
336695587573,-2,-2,6,-5,-3,-2,-1,0
336695587573,-4,-4,-4,2,2,-2,-1,1
336695593642,-1,0,7,2,-3,-1,0,-3
336695593642,-2,-1,-5,-1,-1,1,0,-1
336695610269,-1,1,-1,0,3,1,2,-2
336695610269,1,-1,3,2,-2,-2,-1,1
336695619073,0,-5,7,-5,2,-1,-2,-1
336695619073,-3,4,-7,-6,-5,-2,-1,-1
336695631317,2,-2,-1,0,0,-2,-1,0
336695631317,-1,-1,5,2,-1,2,1,-1
336695638718,0,-1,-13,-6,-2,0,1,2
336695638718,-1,-1,16,6,-5,-1,-4,-3
336695648790,-2,-1,-1,-4,-4,0,-1,-1
336695648790,-1,-1,0,7,3,-2,0,2
336695656594,-4,-4,-6,-5,1,-2,-1,-2
336695656594,0,-1,3,-7,-3,-1,-1,-1
336695668626,-2,1,0,3,0,1,-3,-2
336695668626,0,0,-2,-5,0,-1,-2,0
336695676071,-1,0,-1,4,0,2,-1,0
336695676071,1,-3,-5,-1,0,0,0,0
336695692253,-1,1,6,7,2,0,1,-1
336695692253,-2,-3,-15,-11,-5,-1,1,-3
336695700523,-1,2,-2,0,-1,-4,-3,0
336695700523,0,-1,-7,2,-2,-1,-1,-2
336695714524,-1,-2,2,3,0,1,0,1
336695714524,-1,1,-2,-5,-2,-2,-1,-2
336695714538,0,2,2,5,3,1,1,-1
336695714538,0,-6,-10,-1,1,-3,0,-1
336695744866,-3,-1,-2,-5,-2,-3,-1,-1
336695744866,-1,1,14,3,1,1,1,-1
336695744910,-1,-3,-13,-7,-2,0,0,-2
336695744910,0,-4,2,-1,-2,0,-1,-3
336695751147,-2,0,1,7,4,-1,-2,0
336695751147,0,-1,-7,-2,-4,1,-1,0
336695767817,0,1,0,2,1,1,5,0
336695767817,-1,0,6,-2,3,1,0,-1
336695776474,0,-1,-9,-2,-2,2,-1,0
336695776474,-1,1,6,3,-1,1,2,0
336695776508,0,1,-7,-1,0,-1,0,1
336695776508,-4,-1,6,-2,-2,-1,-1,1
336695789058,1,1,1,-2,-1,0,-3,-2
336695789058,0,-1,-5,2,2,-1,-1,0
336695798225,0,-3,3,1,-4,-4,-4,-1
336695798225,0,-4,-11,-2,-1,-2,1,1
336695815923,1,0,-2,-2,-1,-1,-2,0
336695815923,-2,0,5,-1,1,1,0,0
336695822867,-3,0,4,1,-2,-1,-1,-1
336695822867,-1,0,-1,3,-1,-2,0,-1
336695834492,1,2,-7,-3,1,0,2,2
336695834492,-3,-2,1,-5,-3,-1,1,-1
336695835106,-1,1,7,-2,-1,-2,1,-2
336695835106,-1,-1,-9,-5,-2,-3,2,0
336695850262,0,0,2,6,-1,-2,1,1
336695850262,-1,0,4,1,-1,-3,-2,0
336695857280,-2,-3,-6,-6,0,2,-2,-1
336695857280,0,0,-4,4,1,-2,-1,-1
336695871089,-1,-1,4,1,2,-1,0,-3
336695871089,-1,-3,-13,-7,-1,0,-3,-2
336695879754,1,-2,5,11,-1,-1,-1,1
336695879754,1,0,-7,-16,0,0,1,0
336695897459,-1,-3,0,-3,-5,-1,-1,-1
336695897459,1,-3,1,3,0,-2,-1,-2
336695897483,0,0,-4,-2,-1,-2,-1,-3
336695897483,-2,-2,0,5,2,3,-1,-2
336695912956,-1,0,-1,-6,-3,2,2,-2
336695912956,0,0,0,0,-2,-2,-2,0
336695919426,1,-1,-10,2,1,2,1,2
336695919426,-2,-1,26,4,-3,-2,-1,0
336695931143,2,3,-12,-10,1,-1,-1,0
336695931143,0,1,16,2,1,1,2,-1
336695938672,0,-4,-28,0,1,1,-1,-1
336695938672,-2,-2,5,0,-2,-1,-3,-1
336695954821,0,-4,-9,-6,0,-1,-1,0
336695954821,-1,-4,0,-3,-2,-2,1,1
336695955177,0,1,12,-2,1,0,2,1
336695955177,0,3,-3,1,-1,1,0,0
336695970849,-2,-5,0,0,-5,-2,-2,0
336695970849,0,1,6,0,-2,-2,-2,0
336695976161,-3,-3,1,-3,0,-1,1,1
336695976161,1,1,0,10,9,2,0,1
336695991080,-2,-2,2,0,-4,0,2,0
336695991080,-2,-2,-3,-8,-3,-2,-2,-3
336695998678,1,-2,-2,-2,-2,-1,0,-1
336695998678,1,2,0,-4,1,-1,-3,-1
336696014251,0,0,-3,2,-1,-2,-1,-2
336696014251,-1,-6,0,2,-1,2,-1,0
336696015015,-3,-3,0,-3,0,0,-2,-4
336696015015,-1,-2,0,-2,-2,-1,-1,-3
336696028614,0,-4,-14,0,1,0,0,1
336696028614,0,2,-2,4,0,-1,0,-1
336696036105,-1,-4,10,0,-3,-1,0,-1
336696036105,0,1,-1,-1,-5,0,1,-3
336696051100,-3,-1,-8,1,-2,1,-1,-2
336696051100,-1,0,-2,-4,2,1,0,0
336696058617,1,2,1,-2,0,-1,2,3
336696058617,1,0,3,4,-1,-1,0,0
336696074275,-2,0,11,0,-2,0,-3,-1
336696074275,0,-1,-8,-1,-2,0,-2,0
336696075066,0,4,1,1,1,-2,-2,-1
336696075066,-1,-4,-6,0,-1,-1,1,0
336696088629,-1,0,0,-1,0,0,-2,0
336696088629,-2,0,1,4,1,-1,0,-2
336696096122,1,0,10,-4,-3,-2,-1,-2
336696096122,-2,3,0,-4,1,0,-1,-1
336696111077,-1,-2,0,0,-2,-2,0,-1
336696111077,-1,-2,-6,1,2,0,0,1
336696118579,-2,2,7,-15,-9,-1,-3,-3
336696118579,-1,-2,-15,9,0,-2,0,0
336696134253,0,-3,3,-2,7,1,1,0
336696134253,1,2,-3,1,-4,-1,-1,0
336696135036,-1,0,-2,1,0,-2,-1,1
336696135036,-1,-4,-4,-8,-1,0,-3,0
336696148621,-2,3,6,-1,0,-3,0,1
336696148621,0,0,0,7,0,1,-1,0
336696156103,0,0,-2,-2,6,1,-2,-1
336696156103,2,0,5,-4,-3,0,-1,2
336696171145,3,0,0,-1,-3,-2,0,1
336696171145,-1,-1,-2,-4,1,-2,-2,0
336696178610,-1,-3,3,7,-2,1,0,0
336696178610,-2,-1,-5,1,-1,0,0,-1
336696194294,-1,4,2,0,-2,-1,1,-3
336696194294,1,-3,16,1,-3,-2,-2,-1
336696195066,-1,-4,-10,-1,3,0,-1,-1
336696195066,2,-1,-1,-1,0,-2,0,0
336696208576,0,0,4,6,0,-2,-3,-1
336696208576,-3,-3,-8,-2,-1,1,-1,-1
336696216135,-1,2,4,4,0,-4,1,-3
336696216135,-2,-4,-2,-4,-2,-2,-3,-2
336696231099,-2,1,5,-4,-2,0,0,1
336696231099,1,0,-2,2,-2,-1,-1,-1
336696238662,-1,-1,-6,-3,0,0,-3,-3
336696238662,-1,-3,-1,-3,-4,-3,1,0
336696254341,0,3,6,6,3,1,-2,-1
336696254341,-1,-1,-9,-6,4,1,1,-2
336696255049,1,1,3,6,-3,0,0,1
336696255049,-2,-2,-3,1,-1,1,-1,-1
336696268862,-3,-4,9,-3,-4,-2,0,0
336696268862,-1,0,0,5,0,0,3,0
336696276106,-1,3,2,-1,0,0,-4,0
336696276106,-2,-1,-7,-5,-3,1,-1,-1
336696291123,2,-2,-1,0,-1,-2,-1,0
336696291123,-3,-3,-6,-2,1,0,-2,-3
336696298636,3,4,8,5,-1,0,2,-1
336696298636,0,-2,4,1,4,2,-1,0
336696314306,-3,-4,-23,-9,-3,2,1,-1
336696314306,-1,1,4,0,-3,-2,-1,0
336696315056,-2,-8,-6,2,0,-1,0,2
336696315056,0,3,6,3,0,-1,-2,-2
336696328610,-1,-3,-3,-3,-1,0,1,-1
336696328610,0,1,-1,-3,1,1,0,-1
336696336071,-2,-2,1,-1,1,-1,1,-1
336696336071,0,2,-3,1,-2,-1,-1,-1
336696351104,-2,-2,6,3,-1,-1,-4,2
336696351104,-4,1,2,-2,-2,-1,0,-1
336696358597,-1,0,-4,0,-1,1,-2,0
336696358597,-1,0,-2,-3,0,-3,4,0
336696374280,0,1,-4,3,2,2,0,0
336696374280,1,-1,-17,-11,-1,-4,-1,-2
336696375049,-3,2,10,5,0,0,-1,-2
336696375049,0,1,-4,0,0,1,-2,-1
336696388624,0,-4,6,4,-1,-2,1,-1
336696388624,0,0,0,2,0,0,1,0
336696396142,-1,-4,0,-8,-3,-2,-2,-1
336696396142,-1,0,0,-2,-1,0,-2,0
336696411137,-1,0,6,0,-3,-2,-1,-2
336696411137,-1,-1,1,-3,-4,-2,-2,-1
336696418632,1,0,-11,-2,1,1,1,1
336696418632,-1,1,7,4,0,-1,1,0
336696434262,0,0,3,-4,1,1,-1,0
336696434262,-1,1,-1,0,-1,0,-1,-1
336696435030,-1,-4,-6,-5,-3,0,-1,0
336696435030,1,0,1,6,1,-1,-1,-3
336696448626,-2,1,0,-6,-1,1,1,0
336696448626,-1,-4,-9,-4,2,-2,1,0
336696456096,-1,0,-2,3,-1,-1,-2,-1
336696456096,-1,-3,0,-1,2,-1,-1,1
336696471138,-1,-1,-4,2,-3,-2,-1,-3
336696471138,1,2,7,4,0,0,-1,1
336696478609,0,-1,5,-1,2,-1,0,-2
336696478609,0,-1,-8,-7,-3,-1,0,1
336696493625,3,1,-3,3,6,0,0,1
336696493625,0,3,8,3,-4,-2,-1,2
336696501819,0,1,-3,-6,-3,-1,0,0
336696501819,0,-2,4,0,-2,-1,-3,-1
336696508641,-1,-3,3,1,-1,0,3,-2
336696508641,0,-2,-8,-1,-3,-3,-2,-2
336696516129,-2,-1,-7,-6,-2,0,0,0
336696516129,-1,2,3,1,0,-1,-3,-2
336696531154,-1,2,1,-3,-3,-2,-3,-2
336696531154,1,-2,-1,1,-2,3,0,0
336696538656,1,-1,-4,8,2,-1,-3,-3
336696538656,-4,-3,2,-6,-2,0,1,1
336696553617,-1,1,-2,2,-1,0,-3,-2
336696553617,-1,0,1,-6,1,2,1,-1
336696561804,0,-1,-1,1,-1,-1,-2,0
336696561804,-1,0,2,4,0,-1,1,-2
336696568605,0,-7,-6,-3,1,-2,0,1
336696568605,0,1,-2,-1,-2,-2,-1,-1
336696576117,-1,1,2,2,1,1,1,0
336696576117,1,1,-4,-8,1,-2,0,0
336696591130,-1,-1,-2,-2,-3,-3,-1,-1
336696591130,-1,-4,-6,-2,1,-1,-3,-2
336696598626,0,-1,6,6,-2,2,1,-2
336696598626,0,-4,-22,-2,-1,1,-3,-2
336696613625,-1,2,17,0,-3,1,-1,-1
336696613625,-1,0,-6,-6,-1,-1,0,-1
336696622835,-2,-2,5,0,-3,-2,0,0
336696622835,0,-1,-5,-1,-2,-1,0,-1
336696628660,0,-2,-4,-1,0,0,-1,1
336696628660,0,2,7,3,-2,-1,1,-1
336696636168,-3,-6,-2,-4,-4,-2,-1,0
336696636168,-1,0,0,0,0,0,-1,0
336696651154,-2,1,5,-1,-5,-2,-5,-1
336696651154,-2,-2,11,2,2,-2,-1,-2
336696658647,1,0,-8,-6,2,-3,-2,-1
336696658647,0,-2,5,0,-3,-1,-1,1
336696673620,0,-2,1,0,4,1,3,2
336696673620,0,-1,-4,2,-1,-1,0,1
336696681830,-2,1,-8,-4,-3,1,0,0
336696681830,0,-3,11,5,3,2,0,-1
336696696818,0,1,-2,3,-3,-3,-1,-3
336696696818,0,-1,-7,-7,2,1,-1,1
336696697589,1,0,4,9,4,1,-1,0
336696697589,-2,-3,-4,-10,-6,-1,1,1
336696711131,-1,-4,-13,9,2,1,0,1
336696711131,0,0,4,2,-3,0,1,0
336696718593,1,-2,-1,-7,2,-1,0,-3
336696718593,2,-1,-3,3,-1,2,0,0
336696733624,-2,-1,3,-7,-2,0,-2,-2
336696733624,-5,-4,-8,-5,-3,-1,0,0
336696741950,-1,3,3,6,-1,0,0,1
336696741950,-2,-3,-2,-1,3,-3,0,0
336696756803,-1,-4,-1,-4,1,-3,0,-2
336696756803,1,-2,2,1,-1,1,-2,-1
336696757530,-1,2,3,-1,-1,0,0,1
336696757530,-1,1,-3,0,-1,0,-1,-4
336696771131,1,1,-4,-4,-2,-1,-1,-1
336696771131,-2,-4,5,-3,-2,1,-4,-1
336696778641,-2,4,2,-1,-3,-3,-1,-1
336696778641,0,-3,-7,-2,2,0,-2,0
336696793625,-1,5,2,2,-2,0,-1,-2
336696793625,1,-3,-5,2,2,-2,0,-1
336696801888,3,-1,1,-4,-1,-2,2,0
336696801888,0,0,7,3,1,-1,-1,1
336696816767,1,-2,-2,-4,-2,-1,-2,1
336696816767,-1,0,-18,2,2,0,-1,-1
336696817557,-2,-1,5,-4,-6,-2,0,-2
336696817557,0,-2,-3,6,5,-1,0,0
336696831176,-1,-1,0,-3,-2,-1,-1,-1
336696831176,-1,1,0,1,1,1,-1,-2
336696838632,-2,-6,-6,2,-2,0,0,1
336696838632,0,2,13,-2,-5,-2,-1,1
336696853656,-1,-5,-4,2,1,-1,-4,0
336696853656,0,2,11,0,-1,-1,1,-1
336696862263,3,-3,-10,-2,1,0,-2,-3
336696862263,-3,2,0,4,-4,-2,1,-3
336696876829,-1,-3,-3,-9,-3,0,-2,0
336696876829,2,-2,1,1,-1,0,-2,3
336696877585,0,-1,1,0,-3,-1,-2,-1
336696877585,0,1,0,1,3,0,1,-1
336696891148,-2,-1,-11,2,1,0,1,-2
336696891148,0,-1,-8,-5,-1,-3,-3,-1
336696898597,-2,0,5,-1,0,-2,-3,0
336696898597,3,-2,-12,-3,-1,-2,-2,-1
336696913629,-1,0,3,-1,4,0,0,-3
336696913629,-2,2,11,3,1,0,4,-1
336696921848,-1,0,-9,-1,-2,1,-2,0
336696921848,0,-4,0,-5,-1,-2,1,2
336696936803,1,3,9,1,-2,-3,-1,-2
336696936803,0,-2,-2,2,-1,-1,1,0
336696937544,-2,-1,-3,-4,1,2,1,-1
336696937544,0,7,1,-3,-2,1,-1,0
336696951133,-1,-2,-7,-1,0,0,-1,0
336696951133,-2,-3,-7,3,-2,-2,-1,-1
336696958742,-1,3,0,-2,-2,-3,-2,-1
336696958742,2,-4,-2,-2,-3,-2,-2,0
336696973675,-3,-3,1,0,-1,-1,0,0
336696973675,-2,2,-2,-5,-2,-1,-1,-2
336696981879,0,-6,-1,3,0,2,2,2
336696981879,-4,-4,0,-3,-1,1,-1,-2
336696996797,2,3,14,2,-3,-1,1,-2
336696996797,-3,-1,0,3,0,2,0,-2
336696997555,-2,-1,-9,-4,-1,-1,0,0
336696997555,-2,1,11,0,-1,-2,-1,0
336697012606,1,-6,-5,2,-1,-2,1,2
336697012606,0,3,1,-6,2,0,-1,-2
336697018745,-2,0,2,1,0,1,-1,-2
336697018745,1,0,1,-1,0,1,1,0
336697033596,-2,-4,-12,-2,-2,-2,-1,1
336697033596,0,-1,8,0,-5,-2,0,-1
336697041895,3,2,-5,0,-1,-1,-2,-3
336697041895,-1,1,-1,-1,1,1,0,-3
336697056778,1,-1,-2,6,5,2,-1,0
336697056778,-1,-3,-9,1,1,0,-2,1
336697057559,-1,2,18,-2,-2,-3,-2,0
336697057559,-1,-3,-4,1,-2,1,2,0
336697071096,1,1,1,2,1,0,2,0
336697071096,2,-3,5,-2,-3,-1,-1,-2
336697078641,-2,1,-8,-2,-4,-2,-1,1
336697078641,-1,-4,-6,0,5,-1,-2,-1
336697093633,-2,2,5,-2,-4,2,0,1
336697093633,0,0,14,8,-1,1,-1,0
336697101838,2,-4,-7,-7,-3,0,0,3
336697101838,0,1,5,2,3,1,0,-2
336697116786,1,0,-9,0,2,0,1,-2
336697116786,-1,-2,2,1,2,0,-2,-1
336697117555,-3,-2,-2,-2,-1,-1,0,-1
336697117555,-1,0,3,-1,-2,-3,-1,0
336697131148,-1,-2,2,-3,-2,-1,-2,-1
336697131148,-1,-4,-3,1,1,1,-1,0
336697138619,-1,-1,11,-3,0,0,0,-4
336697138619,-1,-1,-5,1,-1,-1,0,-2
336697153647,-1,0,-4,-4,0,-1,1,-2
336697153647,-1,-1,-5,-7,-5,-4,-1,0
336697161813,0,-3,-3,0,2,3,1,-3
336697161813,-3,-1,7,3,-3,1,-1,0
336697176834,-1,3,4,1,1,0,-1,1
336697176834,-1,-2,-17,-6,-4,-1,0,0
336697177596,1,0,7,7,7,0,-1,-2
336697177596,0,-5,-7,-7,-6,-1,-2,0
336697191169,-2,2,5,2,-1,-1,-1,-1
336697191169,0,0,1,1,1,0,0,0
336697198630,0,-3,-3,-5,-7,-4,-4,0
336697198630,-2,-2,1,-2,0,-1,1,-1
336697213664,0,-3,-8,-6,1,2,-1,-2
336697213664,-3,1,2,-3,-2,-4,0,0
336697221819,-1,2,2,3,-4,-2,0,0
336697221819,0,-6,-3,-10,1,1,-2,-2
336697236815,-1,-3,2,8,-2,-3,-1,0
336697236815,0,2,0,-3,-2,1,0,1
336697237650,-2,-5,2,-2,-3,-2,-1,-1
336697237650,0,7,7,5,-1,0,-2,-1
336697251156,0,-6,-5,-4,-5,-2,-2,-2
336697251156,2,0,-5,-4,0,1,0,0
336697258671,-1,2,2,4,4,-1,1,0
336697258671,-3,0,-2,3,-1,2,-1,-2
336697273613,0,0,-3,-6,-1,0,1,0
336697273613,0,1,5,1,-2,-2,-3,0
336697281863,-1,-1,-10,0,2,-1,1,-1
336697281863,-3,-2,5,2,-1,-3,-2,-1
336697296842,2,2,4,-1,1,1,-2,2
336697296842,-2,-4,-5,1,1,0,0,-2
336697297624,1,4,-2,5,1,0,0,1
336697297624,2,-4,-4,-8,2,1,0,3
336697311116,-1,0,6,8,2,0,0,-2
336697311116,-2,2,2,-9,-1,1,0,-2
336697318616,0,-4,-2,4,-1,-1,-1,-1
336697318616,2,0,-2,0,0,-2,-1,0
336697333635,-1,2,-9,-6,-5,-1,-2,-2
336697333635,0,-2,-1,2,-1,-1,1,0
336697341858,-1,0,1,2,6,1,-2,-1
336697341858,0,-2,0,0,-2,0,0,-1
336697356829,0,-3,-3,-8,-3,-2,0,2
336697356829,-1,0,5,6,-3,-2,-1,-1
336697357583,-1,-3,-3,-7,1,1,1,-2
336697357583,-3,1,-5,1,0,1,1,0
336697371178,0,4,7,0,0,2,0,2
336697371178,0,-2,-2,0,0,0,0,-3
336697378682,0,-3,-8,-1,-2,-2,0,1
336697378682,0,5,11,2,0,-1,-3,-2
336697393710,-5,-8,-5,-1,-2,-2,-3,-4
336697393710,-3,-1,4,0,-2,0,0,0
336697401874,-1,3,-10,-5,-3,-1,1,0
336697401874,1,-1,5,3,-2,-1,0,-1
336697416790,-1,-1,-6,0,2,0,-2,0
336697416790,-3,-4,0,2,2,1,-2,-1
336697417583,-1,3,0,0,0,2,-1,-2
336697417583,-1,0,-4,-4,-3,-2,2,2
336697431160,0,-2,7,2,2,0,1,-2
336697431160,-1,1,-4,0,4,1,-1,0
336697438636,1,-3,3,-3,-5,-3,0,1
336697438636,-2,0,-5,-1,2,1,1,0
336697453659,0,2,-1,-3,-1,-1,1,3
336697453659,0,1,-2,-1,-1,-1,1,-1
336697461811,0,0,2,1,-2,0,-4,0
336697461811,0,-2,-4,0,-3,-2,-1,-2
336697476222,-2,-1,8,-6,-2,-2,0,1
336697476222,1,0,5,0,0,-1,-1,0
336697484317,0,-1,-2,1,0,0,1,0
336697484317,-1,1,-3,3,1,-1,1,2
336697491166,-1,-3,-5,-2,-2,0,0,0
336697491166,1,-1,-7,-6,-2,0,0,0
336697498688,-2,-7,9,0,1,1,-2,-2
336697498688,0,7,-3,-4,-5,-2,-2,-1
336697513699,0,-5,-5,2,3,0,0,-3
336697513699,-1,1,9,2,0,-1,-1,-1
336697521837,1,-7,-6,1,0,-2,-1,2
336697521837,-2,-5,4,-4,-2,-1,-1,-2
336697536178,0,2,2,-3,-4,0,-2,-1
336697536178,1,-2,-5,0,1,-2,0,-2
336697544388,-2,0,4,4,2,0,2,-1
336697544388,-3,1,9,-1,-1,-2,-3,-1
336697551208,-1,-4,7,1,-3,0,-1,0
336697551208,-1,-2,-7,-3,0,0,-1,-1
336697558694,-4,1,3,-5,-2,1,-1,-1
336697558694,0,-1,-6,0,0,0,0,-1
336697573657,-1,-4,-5,-2,2,0,-1,-1
336697573657,-4,1,2,2,-3,-1,-1,1
336697581859,0,0,-2,-3,1,0,1,1
336697581859,-1,-5,-8,-2,0,-3,1,-2
336697596209,-1,-1,-5,3,-2,-1,1,-1
336697596209,1,3,11,-3,-5,-1,-1,-1
336697604364,-2,1,-7,-3,-1,0,-3,-2
336697604364,2,-3,6,3,-2,2,-1,0
336697611162,0,-2,-19,-6,0,0,-1,0
336697611162,-1,-4,3,2,1,1,0,0
336697618652,-1,-2,-4,0,-2,0,-2,2
336697618652,0,-1,-1,-1,0,2,0,0
336697633670,1,1,2,1,-1,-1,0,0
336697633670,-1,-8,-17,-5,-2,0,-3,0
336697641886,-2,6,-2,5,3,-1,0,-1
336697641886,0,-1,-8,-5,1,-1,1,0
336697656140,1,1,1,-4,-3,-2,-1,-2
336697656140,1,0,0,0,-1,0,2,0
336697664373,2,-1,1,2,1,0,0,-4
336697664373,-1,-2,-4,0,-1,-3,-3,-1
336697679323,-1,1,3,2,1,-1,-2,-1
336697679323,-3,0,0,-1,-3,-1,-1,-2
336697680070,0,4,9,-2,-3,-1,0,0
336697680070,2,-5,-11,-2,-1,2,-1,0
336697693640,-1,1,3,-2,-1,-1,1,-3
336697693640,-2,-2,-5,2,-1,-2,-1,-1
336697701848,0,-1,-1,-1,-2,0,-2,0
336697701848,-1,-1,3,4,1,0,-2,0
336697716177,-2,-1,1,0,-3,-1,0,0
336697716177,-3,1,-3,-3,4,2,0,1
336697724381,-2,1,1,-4,-7,-5,-2,0
336697724381,-3,-5,1,-6,3,-2,2,0
336697739344,-1,3,4,0,1,0,1,-2
336697739344,1,1,-1,1,-2,0,0,0
336697740196,1,-2,2,-3,1,-3,0,0
336697740196,-1,-1,1,-2,0,1,-1,0
336697753600,0,1,5,0,0,0,-3,1
336697753600,0,2,-11,-3,-2,-1,1,-1
336697761879,-1,-3,-3,1,3,2,0,-1
336697761879,-2,-1,-2,5,0,1,-3,-2
336697776210,-2,1,-2,-2,1,0,-1,-3
336697776210,1,-2,5,1,-2,-2,0,-2
336697784377,-1,-6,-7,-3,-2,-1,1,-1
336697784377,0,8,5,-1,-3,0,-1,-3
336697799380,-2,-1,1,9,0,-2,-2,2
336697799380,-2,-4,2,-10,-3,-1,-3,1
336697800121,-1,-4,-9,-7,-3,-1,0,-2
336697800121,-1,4,8,6,1,-2,1,-1
336697813820,1,-3,-18,1,1,0,-2,2
336697813820,0,1,0,-1,-1,-1,-1,-2
336697821868,-3,0,-1,5,0,1,-1,-2
336697821868,-1,-5,13,-11,-2,-1,0,1
336697836195,-3,1,-4,-3,-1,1,0,0
336697836195,-3,-3,0,4,2,-2,1,0
336697844344,-1,0,1,-3,-2,-1,-1,0
336697844344,-1,3,-5,6,1,0,2,0
336697867539,1,1,-3,-5,2,-1,-1,-2
336697867539,0,-2,2,-1,0,1,-1,0
336697868307,0,0,-2,-2,-3,-1,-1,1
336697868307,0,-1,-6,-1,-1,0,-1,0
336697873703,-1,-5,0,-6,-1,2,0,1
336697873703,-1,2,8,2,-2,-3,0,0
336697882007,-1,-6,-9,-5,-3,0,-2,-2
336697882007,0,-3,-7,-2,-4,1,-1,-1
336697896253,0,2,8,8,7,0,1,1
336697896253,-1,-5,-4,-7,-4,-1,-1,-2
336697904445,-2,-1,-6,4,5,2,2,-1
336697904445,-2,-1,-3,-6,-4,-1,0,-1
336697919342,2,-1,4,2,-4,-2,-2,-3
336697919342,1,-1,3,3,2,1,1,-1
336697920081,-2,0,-4,-4,-4,-2,0,0
336697920081,-1,-2,-4,-1,-3,-1,-3,-1
336697933683,-3,-2,2,0,1,-1,2,-1
336697933683,-1,0,-6,4,1,0,-2,1
336697941891,-1,2,11,-1,-1,-2,-2,-2
336697941891,0,-2,2,-2,3,-2,1,0
336697956195,-2,-2,6,2,-5,-3,0,-2
336697956195,1,1,2,-5,0,-1,-1,2
336697964391,1,-2,-3,1,2,1,-2,-1
336697964391,-3,8,-5,0,0,1,1,-2
336697979344,1,-4,2,-4,-3,0,1,1
336697979344,-4,-1,-1,3,1,0,-1,-2
336697980072,0,-2,-1,3,-1,-1,-1,1
336697980072,-2,-2,3,-9,-6,-3,-2,-1
336697993678,1,2,0,4,2,1,-2,-3
336697993678,1,0,-14,-3,-1,1,-1,1
336698001873,-2,0,2,-13,-7,-3,0,-1
336698001873,2,-4,-1,13,5,-1,0,-1
336698016163,0,0,-1,1,3,1,-2,0
336698016163,0,-3,7,3,-2,-2,-2,-1
336698024377,-1,1,-1,2,4,1,-1,-2
336698024377,0,-5,2,-2,-1,1,2,-1
336698039470,-2,1,-3,-6,-4,-2,1,-1
336698039470,0,-2,2,3,2,1,1,-1
336698040128,2,0,5,-1,1,1,0,0
336698040128,-4,-4,-14,-8,-4,0,1,-1
336698053674,-1,-2,-2,0,-3,-3,0,1
336698053674,-1,0,-2,-2,-2,0,0,0
336698061888,0,-2,1,0,-1,-1,-1,-1
336698061888,1,0,1,4,0,-1,-1,0
336698076211,-1,-2,4,-2,-1,-1,0,-1
336698076211,-3,-1,-17,-8,-1,0,-1,-1
336698084355,0,2,10,0,0,-2,1,1
336698084355,1,-2,0,0,0,0,-2,0
336698099405,2,-3,-5,-1,-3,-2,-3,1
336698099405,-2,3,3,6,1,-2,2,-1
336698100128,-2,-3,-6,-3,0,-1,1,2
336698100128,-3,-1,-2,5,1,1,-1,1
336698113838,1,3,4,-6,-7,0,-1,1
336698113838,-2,1,0,8,5,1,-1,-2
336698122652,0,-3,-9,-2,-2,-1,-1,-1
336698122652,-2,0,1,0,-2,-3,-1,-1
336698136207,-1,-3,-5,-3,2,0,1,0
336698136207,-1,-1,5,0,1,-1,1,0
336698145154,2,3,6,4,-1,-2,1,-1
336698145154,-1,-3,-5,-1,0,0,1,-1
336698158715,-2,-6,-4,-1,-3,-1,-3,-3
336698158715,0,2,-1,-7,0,-1,2,-1
336698167646,-2,0,8,1,0,0,-1,-2
336698167646,-1,1,7,2,-1,-1,-1,-1
336698173884,-1,0,-8,1,2,2,2,-2
336698173884,-1,0,-5,-4,-2,0,-1,1
336698182651,-2,-3,-3,-1,-1,0,1,0
336698182651,2,0,11,-3,-1,0,-1,0
336698196366,-2,0,-11,2,0,1,1,-1
336698196366,0,-3,5,1,-3,0,-4,-1
336698205156,0,3,3,-4,-3,-1,0,0
336698205156,-1,-2,-8,2,2,0,0,-1
336698218886,-2,1,3,-2,1,0,1,0
336698218886,1,-5,-4,-5,-1,-1,0,-2
336698227717,0,-1,-5,5,-1,-1,-1,0
336698227717,0,-1,4,-3,-1,-3,0,1
336698233741,1,2,0,-1,2,1,0,1
336698233741,-1,1,0,-2,1,2,0,-1
336698242788,-4,-3,-9,3,-1,0,-2,0
336698242788,0,-3,-2,-9,-2,1,1,-1
336698256287,-2,1,1,7,-1,-1,0,1
336698256287,-1,-1,-2,-1,1,0,-2,-1
336698271713,-1,-1,7,7,5,4,-1,0
336698271713,0,-4,-12,-12,-4,-1,-4,-1
336698278878,-1,-2,4,1,-1,-2,-1,-2
336698278878,2,-3,-2,-5,-8,0,-1,-2
336698287773,0,-1,-1,7,4,-2,1,-2
336698287773,-1,-3,-2,10,5,0,2,0
336698293708,-2,-2,4,-5,-3,-3,-2,-1
336698293708,-1,-1,5,5,-1,-3,-1,-1
336698308817,-2,-2,-7,-10,-3,1,0,-1
336698308817,0,-3,-2,4,-2,0,-2,1
336698316210,0,1,-4,-5,-2,0,0,-2
336698316210,-2,-1,-3,-3,-1,-1,1,0
336698325160,0,-3,-4,-2,-3,0,0,-2
336698325160,-1,4,5,-1,3,0,-1,-1
336698338712,2,1,4,8,-1,-2,0,0
336698338712,-1,-1,-8,-10,0,0,-2,-2
336698347658,-1,1,-7,1,0,-1,-3,-1
336698347658,-1,1,13,-1,-3,0,1,-2
336698353722,-3,-1,-14,-6,-3,0,0,1
336698353722,0,0,9,6,-1,1,0,1
336698362666,1,-3,-3,-3,1,-2,0,-1
336698362666,0,0,-5,1,-4,0,-1,1
336698376209,-2,-2,-2,-8,-1,-1,-1,0
336698376209,0,-1,0,5,-3,-2,0,1
336698385175,-3,0,7,-5,1,0,0,-1
336698385175,0,1,-5,1,-3,-3,-3,-1
336698398701,-2,-4,-2,1,1,-2,-2,0
336698398701,-2,0,1,-3,1,-1,0,3
336698407717,-1,-1,1,-3,-1,0,0,0
336698407717,-2,3,8,1,-1,0,2,-2
336698413716,1,-2,-9,-2,0,2,1,0
336698413716,0,1,15,4,-1,-4,-1,0
336698422652,0,2,1,-2,-3,-2,-1,0
336698422652,2,-2,-5,5,6,-1,-1,0
336698436237,0,-1,8,-2,-2,1,-2,-5
336698436237,-2,-3,0,-2,1,-2,0,-1
336698445242,-2,-3,0,0,-4,-2,-1,0
336698445242,-3,2,-7,-5,-4,0,-1,1
336698458855,0,1,9,7,3,0,-2,2
336698458855,-2,-4,-6,-4,2,-2,2,-3
336698467716,-1,-2,-2,2,-1,1,-2,-1
336698467716,-1,3,-3,-5,0,-2,1,1
336698473712,0,-5,3,6,0,-1,-3,0
336698473712,-1,-3,-8,-2,-2,1,0,-2
336698482679,2,0,0,-2,1,-2,-3,-2
336698482679,0,-2,3,2,-2,1,0,-2
336698496201,-1,2,0,-7,0,1,0,0
336698496201,-1,-2,-8,4,0,2,-1,0
336698505212,-1,-2,0,0,1,-1,-1,0
336698505212,-2,-3,-1,-4,-4,0,-1,1
336698518713,-1,5,-1,-3,-2,0,-2,-1
336698518713,-1,1,3,-1,-3,2,-1,-1
336698527712,0,-2,-1,-1,1,0,1,-3
336698527712,-1,-5,-16,-8,3,1,0,-3
336698533697,-2,-2,4,-4,-5,0,2,-3
336698533697,2,0,-1,3,-3,-4,-1,-2
336698542726,-1,-3,1,1,5,2,-1,0
336698542726,-1,-1,-1,-3,-4,-1,-1,1
336698556743,-1,-5,-3,-2,0,-1,-2,-2
336698556743,-3,-1,5,1,-1,-4,-1,-2
336698565217,2,-2,-5,-5,-3,0,-1,-1
336698565217,-2,3,7,3,2,0,-1,0
336698578873,1,-2,-2,2,-1,-2,-1,0
336698578873,-3,-3,-4,1,2,2,-1,-1
336698587693,-3,8,2,-8,-5,-3,-2,-1
336698587693,0,-7,-3,4,1,-1,2,0
336698602571,-2,-2,5,2,-2,0,1,-2
336698602571,2,-2,-2,-2,-2,0,-2,2
336698604171,-2,-1,-7,-5,-2,-1,0,1
336698604171,0,1,3,0,3,2,-3,-3
336698624278,0,-2,-13,0,-1,-3,0,-2
336698624278,-1,0,4,-4,0,2,-1,0
336698625183,-2,0,-1,5,-2,1,2,-1
336698625183,-1,-3,-5,6,-1,0,0,-2
336698638780,0,-4,-7,-8,0,-2,-1,2
336698638780,1,6,-3,2,0,-1,-2,0
336698647653,-2,-5,4,-5,0,-2,1,0
336698647653,0,-4,-1,4,-3,-1,0,0
336698662556,0,3,-1,2,0,0,1,0
336698662556,-2,-2,-1,-4,-1,2,0,-2
336698664138,-1,1,-3,3,0,-1,0,-1
336698664138,0,0,-6,-8,-1,-2,-1,0
336698676175,0,1,12,3,-1,-1,1,-2
336698676175,-3,-3,-3,-1,3,1,0,0
336698685201,1,-1,4,3,-3,0,0,-1
336698685201,-3,-4,2,-5,1,0,0,1
336698698833,-1,1,4,1,1,-2,1,-1
336698698833,0,-1,-4,6,-5,-3,1,1
336698707701,-1,1,-4,-11,-2,-1,0,-1
336698707701,-1,1,2,3,3,-3,-1,0
336698722609,-1,0,-3,1,-1,-1,-1,1
336698722609,0,1,4,-4,-3,-2,0,0
336698724923,-1,-5,-12,1,1,1,-1,1
336698724923,1,1,11,2,0,1,-1,-2
336698736285,-2,-1,-3,-4,-1,-1,-1,-1
336698736285,-1,-4,-6,-7,-2,-2,-1,1
336698745182,0,7,3,7,1,0,-2,1
336698745182,-3,-1,-1,-6,-4,-2,-1,0
336698759408,0,-5,-3,2,-1,-1,-2,-3
336698759408,0,-3,-5,-1,-3,0,0,-1
336698766161,-1,-4,-1,2,3,-1,-1,0
336698766161,-2,-3,-1,0,3,2,0,-1
336698782582,-3,3,-1,-6,-1,1,-1,-1
336698782582,-2,-1,-2,-2,-2,-2,-1,-1
336698784130,0,-1,5,5,-2,0,-1,-2
336698784130,0,-4,-3,-6,-8,-1,0,-2
336698796240,0,-4,-4,-3,3,0,-2,-1
336698796240,1,3,2,0,1,0,-1,0
336698805209,-2,-10,-1,2,-3,0,3,0
336698805209,1,3,7,1,-2,-1,-2,0
336698819416,0,0,1,4,3,1,1,0
336698819416,0,-1,-7,-1,1,-2,-2,1
336698826259,0,0,9,-2,0,-2,0,0
336698826259,0,-2,1,-3,-2,0,0,-1
336698842577,-2,0,5,1,-4,-1,-1,-2
336698842577,0,-1,-8,-1,5,3,0,0
336698844206,0,2,6,3,4,-1,1,0
336698844206,0,2,-7,-5,-1,1,0,0
336698865073,0,1,0,-3,1,-1,-1,2
336698865073,0,-2,3,-1,-2,0,1,-1
336698866663,-1,1,-2,0,-2,1,-1,-2
336698866663,0,-1,-4,-2,-1,-4,2,-1
336698879582,-1,-3,-1,-1,1,-1,-1,1
336698879582,-3,0,2,-4,0,-2,1,-2
336698886263,0,-1,-5,-4,-3,0,-2,-1
336698886263,-2,-1,2,5,0,1,-3,0
336698902628,-3,8,-1,0,-2,0,0,0
336698902628,0,-4,5,-3,-2,-1,-1,-3
336698904173,-1,-3,-4,0,0,-2,-1,0
336698904173,0,2,1,0,-3,-3,-2,-1
336698916182,1,-4,2,-3,0,-1,1,0
336698916182,-3,3,-1,1,-2,0,-1,-2
336698925204,-1,-3,7,-4,-1,-2,0,-1
336698925204,1,-1,-5,0,-2,0,-2,-2
336698939444,0,-2,3,1,0,1,-1,-1
336698939444,2,-6,-5,-6,-4,-1,-2,0
336698946228,0,-1,3,-1,4,-1,-2,0
336698946228,-1,-1,-4,4,-2,-2,1,0
336698962596,-3,-1,6,1,-3,-2,0,-1
336698962596,-1,0,-4,-2,1,3,1,0
336698964154,-1,0,-1,-5,3,2,-2,-1
336698964154,-1,-4,-6,1,0,-2,-1,0
336698976711,1,-1,-6,-1,-3,0,1,-1
336698976711,-1,0,12,4,1,-3,-2,-1
336698985226,-1,1,-5,-3,-4,-1,-1,0
336698985226,0,-2,7,-5,3,4,0,-1
336698999425,0,-3,-7,0,2,2,2,0
336698999425,-1,3,6,1,-1,-2,-2,-2
336699006250,-3,-4,-6,4,0,0,0,-1
336699006250,-1,4,9,2,1,-2,-3,-1
336699022616,-1,-5,-7,-5,-3,-1,-2,0
336699022616,1,0,-4,1,2,-1,1,1
336699024214,0,-2,0,-3,-2,0,0,-3
336699024214,-1,-1,8,6,-2,-1,-2,-1
336699036238,-2,-7,-6,-8,3,0,-1,0
336699036238,0,2,0,5,-2,0,0,0
336699045202,0,0,-5,-1,-4,0,2,0
336699045202,0,-1,-5,5,4,-2,0,1
336699059455,0,1,2,-5,1,1,-2,-3
336699059455,-2,0,0,0,1,0,0,-3
336699066252,0,-2,-5,-3,0,-4,-1,-1
336699066252,-2,-2,1,-1,-2,-1,0,0
336699082592,-2,2,1,6,1,-1,-1,-2
336699082592,-1,-5,-3,-6,-1,-1,-2,0
336699084180,-1,-2,0,-2,-4,-1,-2,-2
336699084180,0,2,-6,-5,-2,0,-2,0
336699096271,-1,-1,3,1,0,0,0,1
336699096271,1,0,-3,-3,-3,-1,2,-2
336699105172,-3,0,-2,0,-2,0,-1,-1
336699105172,-4,1,-1,-1,-3,0,0,-1
336699119423,1,0,-2,3,-1,0,-3,0
336699119423,0,-2,5,1,1,-2,-5,0
336699126232,2,1,-2,-3,2,0,0,2
336699126232,-1,-2,-5,2,-3,-3,1,-2
336699142584,-4,1,-2,-1,-3,-2,-2,0
336699142584,0,-2,2,-7,0,1,0,1
336699144148,-1,2,-2,6,0,-2,-1,-3
336699144148,1,1,3,-5,-2,-2,2,0
336699156349,1,1,1,1,-2,-1,0,-1
336699156349,-4,-3,-7,1,-3,-1,2,-1
336699165226,0,-1,5,-2,2,2,-1,0
336699165226,0,-1,-3,-1,-1,-1,-3,1
336699179508,0,0,-3,-4,-3,-2,-1,-2
336699179508,2,-4,5,7,1,2,0,1
336699186245,-1,9,-2,-5,-2,-1,0,-1
336699186245,-1,-2,-3,1,0,0,0,-1
336699202593,1,-1,-3,-1,2,-1,2,1
336699202593,-1,3,1,-2,-1,-1,-2,-1
336699204189,2,-4,-1,-3,-2,0,0,-2
336699204189,-1,0,3,0,0,-1,0,-1
336699216249,-1,1,2,1,-2,-3,-2,0
336699216249,0,-5,-14,-6,-3,-2,-2,1
336699225205,-1,1,10,-1,-1,-2,-1,-1
336699225205,-3,-3,-15,2,0,0,0,-2
336699239433,0,-1,9,4,4,1,1,0
336699239433,-3,1,5,-4,-1,0,-1,-1
336699246204,0,-4,-1,7,-3,-3,-3,0
336699246204,1,-4,-6,-13,0,0,-2,0
336699262564,1,-1,9,-1,-2,1,-1,0
336699262564,-2,-3,-15,2,4,-2,2,-1
336699264146,-2,-4,3,-5,-2,1,0,0
336699264146,2,7,3,1,1,2,3,-1
336699276214,-3,-5,0,-3,-4,-2,-5,-2
336699276214,1,1,-11,-2,-2,-2,-2,0
336699285290,-2,-3,3,4,3,-1,-1,0
336699285290,1,-1,-3,-2,-1,1,-1,-2
336699299494,0,-1,-1,3,0,-1,-1,-2
336699299494,1,1,11,0,-4,1,1,1
336699306231,1,0,-9,-2,1,-3,0,-2
336699306231,-1,-2,8,0,2,1,-1,-1
336699322688,-3,-5,-8,0,3,1,-2,-4
336699322688,-1,6,5,-1,-2,0,-1,-3
336699324307,-1,-2,1,2,-1,0,-1,-1
336699324307,0,-3,0,1,-6,0,1,0
336699336300,1,-2,-8,-5,3,3,0,-1
336699336300,-1,-2,4,6,-1,0,-1,-1
336699345234,-1,0,1,1,1,-2,-3,-2
336699345234,-2,-1,-5,-3,2,-2,-3,-1
336699359471,1,-1,1,1,-4,-2,4,1
336699359471,0,-4,2,-5,-2,-1,-1,0
336699366232,-1,1,6,2,-3,-1,1,0
336699366232,-2,-3,-10,2,-1,-2,-1,-1
336699381925,-1,2,0,-5,-2,-1,0,-3
336699381925,1,1,2,5,2,-1,0,0
336699388768,0,-3,1,-3,-2,1,-2,-1
336699388768,-1,-5,-3,-5,-1,0,0,-2
336699396301,0,2,-2,3,-2,-1,0,1
336699396301,-1,-1,-1,-1,2,-1,0,-1
336699405280,-1,-2,-2,-2,-3,-2,0,0
336699405280,-2,0,4,0,-1,0,-1,1
336699419470,0,-1,-3,-1,-1,1,0,0
336699419470,0,-2,-9,-7,-2,-1,0,-1
336699426312,-3,3,-7,1,-1,-2,-1,0
336699426312,2,2,9,4,2,-1,-2,1
336699441902,-1,-3,0,-4,-3,-1,-1,2
336699441902,-2,-5,2,4,1,0,-1,-1
336699448769,-1,0,-4,-5,0,3,3,-1
336699448769,0,-1,5,-3,2,-1,0,-1
336699456274,-3,3,0,1,-4,-1,-1,0
336699456274,-1,-3,-2,-7,-1,-3,0,-1
336699465208,0,-1,7,1,-3,0,-1,1
336699465208,0,2,1,5,4,1,-3,0
336699479432,-1,-3,-1,0,-2,1,-1,-1
336699479432,-2,3,-7,-1,-1,-2,0,0
336699486299,0,-1,-4,-3,0,-2,-1,-1
336699486299,-2,-4,-2,-6,-3,-1,0,0
336699501957,-1,1,1,-3,1,0,-1,0
336699501957,1,2,1,4,-1,0,-1,-3
336699508771,0,2,3,-2,1,-1,0,0
336699508771,0,-4,-12,-1,-2,-2,0,-1
336699525571,-1,2,-1,-3,-3,-2,-1,1
336699525571,-1,-3,7,-2,-2,0,0,0
336699527192,-2,-1,-7,0,0,-1,-1,-1
336699527192,-4,-1,-2,-5,-3,-1,1,-4
336699539495,-1,-2,3,10,2,0,-1,-2
336699539495,-1,4,2,-2,2,0,-1,2
336699546269,-1,-2,-5,1,-3,-1,-1,-1
336699546269,2,-1,6,-1,1,-1,-1,0
336699561919,0,-5,-11,6,-1,-1,-1,-1
336699561919,0,4,0,-3,0,0,1,-2
336699568722,-1,-8,-10,-5,0,2,-2,-1
336699568722,1,1,-1,0,-1,0,0,0
336699585375,-1,0,-1,-3,-2,-2,-1,1
336699585375,0,0,5,6,0,-1,-1,-1
336699586730,1,-6,-7,4,0,1,0,1
336699586730,-1,9,6,-2,0,-2,0,1
336699599460,-1,-2,0,-1,-1,-2,0,0
336699599460,-1,-4,-4,-3,-3,0,0,-1
336699606278,-2,0,-3,-1,2,-2,1,-1
336699606278,0,-3,4,2,-1,-1,1,-1
336699621940,-1,0,-2,-1,-2,1,0,-1
336699621940,-1,-2,0,0,-1,-1,-3,0
336699628782,1,-1,10,-3,0,0,0,-1
336699628782,-1,-1,-8,-1,-2,0,1,-1
336699645135,-1,3,7,-2,0,-1,-1,-3
336699645135,-1,-7,-13,-1,-2,-2,1,-1
336699646771,0,4,4,-1,-7,-2,0,-1
336699646771,-1,-3,-2,8,11,2,-1,0
336699659526,1,-2,-4,-4,-2,1,-3,-1
336699659526,-1,1,15,2,-2,0,-1,3
336699666280,-1,2,-1,3,0,-1,-1,0
336699666280,-1,-4,-1,-4,-4,-2,-2,1
336699682795,0,2,-4,1,2,-1,0,0
336699682795,0,-2,6,-1,-2,-1,0,-1
336699688762,1,2,-3,-5,-3,-3,0,1
336699688762,0,-1,1,1,-2,1,0,-1
336699705146,1,-2,0,1,0,-1,0,0
336699705146,-1,0,-6,1,0,-2,-2,-1
336699706816,-1,0,5,0,3,0,-1,-3
336699706816,1,-2,-8,0,-4,0,0,-1
336699719564,1,1,4,-2,-2,-1,0,0
336699719564,2,-3,-3,-4,3,1,1,0
336699726209,1,-2,2,2,2,1,0,0
336699726209,0,-2,-8,0,1,1,-1,0
336699742335,-1,0,10,2,-1,1,1,0
336699742335,0,0,-1,0,0,0,-2,0
336699750942,-2,0,2,4,2,0,1,1
336699750942,1,-4,-5,-8,-2,-1,-2,1
336699765274,-1,-3,-5,-10,-6,-2,-2,-1
336699765274,1,3,5,16,5,1,0,-1
336699772514,0,-1,-7,-9,-2,-1,-1,-1
336699772514,-2,2,11,3,3,-1,-2,-2
336699779478,0,-3,-6,-4,-2,-1,-2,0
336699779478,0,-1,-3,-6,-5,-3,0,1
336699786271,0,-3,8,5,-1,-3,0,0
336699786271,-3,-3,-12,-5,-4,-1,0,1
336699801985,-3,-1,2,5,7,0,-3,1
336699801985,0,4,0,0,-1,0,-2,-1
336699808764,-1,-2,7,2,2,1,2,-1
336699808764,-1,-1,-4,-5,-4,-4,-1,0
336699825291,-3,-2,4,-2,0,0,-2,-1
336699825291,-1,-4,-4,0,0,-3,-1,-2
336699827033,-2,0,0,-4,-2,0,-1,-3
336699827033,-1,2,17,2,-2,1,0,1
336699839554,-1,-1,-13,-1,0,0,2,-1
336699839554,1,-1,-2,-4,-5,1,-1,0
336699846253,0,1,-6,7,1,-1,-4,0
336699846253,-1,-8,4,-1,2,0,-3,-1
336699861951,0,4,-7,-7,-3,-5,1,-3
336699861951,1,2,5,3,1,-2,1,0
336699868846,-2,0,-11,-1,1,3,-1,1
336699868846,2,-2,-1,-2,0,0,1,0
336699885099,1,-2,5,2,-1,-1,-2,1
336699885099,-1,-3,-7,-3,-1,2,1,-3
336699886676,-1,-2,2,-8,-5,-2,-3,0
336699886676,-1,4,2,5,1,-2,1,0
336699899511,0,-1,-2,-2,0,-1,1,-3
336699899511,-2,-3,-8,3,2,1,-1,-1
336699906403,1,-2,9,-6,-3,0,-1,0
336699906403,-1,1,-2,-1,-3,1,2,-1
336699922074,-3,-1,-6,2,-1,-1,-2,-1
336699922074,-4,0,3,-4,-2,-4,0,1
336699928854,1,-1,-1,4,4,3,2,0
336699928854,0,2,-11,-2,2,-2,-2,-2
336699945128,0,-3,2,-2,-3,1,-2,-1
336699945128,2,-1,-9,4,1,1,0,-1
336699946753,-1,-1,-4,-9,-3,-2,-1,-1
336699946753,-2,0,2,6,-1,-2,2,0
336699959484,1,-3,7,-1,1,-2,-1,1
336699959484,2,1,3,-1,0,2,-1,0
336699966306,-1,0,-7,-1,-1,-3,-1,-1
336699966306,-1,-4,-2,-1,-1,0,-2,-3
336699981961,-2,2,1,-1,-1,-1,0,-1
336699981961,-3,-4,2,-4,-2,-1,-1,1
336699988800,0,0,1,1,-2,1,2,1
336699988800,-1,-1,-13,-4,-1,0,-2,1
336700005126,-1,2,10,0,0,0,1,0
336700005126,-2,0,-2,0,0,-2,0,0
336700006703,-1,-3,-11,0,3,0,1,0
336700006703,2,7,19,-3,-5,-4,-2,-2
336700019530,-1,-9,-9,2,0,1,-2,-1
336700019530,2,8,5,0,1,-1,1,3
336700026324,-1,-8,-3,3,-3,0,0,-1
336700026324,1,-2,7,5,2,1,-1,2
336700041956,-1,-3,-1,-9,-5,1,-2,0
336700041956,-3,-2,4,-4,-5,-1,-3,-1
336700048828,0,-1,6,8,6,-1,0,0
336700048828,0,0,-18,-2,0,-1,-2,-3
336700065213,1,2,9,6,2,-2,2,0
336700065213,-2,-3,-2,-2,-3,-1,0,-2
336700066753,1,-1,1,-5,5,-1,-2,-1
336700066753,-1,-4,10,6,-1,2,1,0
336700078840,3,1,-13,-3,-1,-2,-1,-2
336700078840,-2,0,-7,-4,-1,-2,-1,-1
336700087827,-1,1,9,2,-4,-1,-2,-2
336700087827,-2,1,9,-3,-1,1,1,1
336700102007,2,-3,-16,5,-1,-2,-1,1
336700102007,1,1,10,-5,-2,1,-2,-4
336700108740,0,-3,-4,4,3,0,-2,-1
336700108740,0,2,-3,-4,-4,-2,-1,-1
336700125102,-1,-2,-4,-1,1,3,2,1
336700125102,1,-1,1,9,3,-1,0,0
336700126718,-3,1,3,-3,-2,-3,-1,1
336700126718,-3,-5,-19,-7,1,2,-2,-1
