timestamp,emg1,emg2,emg3,emg4,emg5,emg6,emg7,emg8
89402226895,2,6,-3,-2,-3,3,0,-1
89402226895,-3,3,4,4,1,4,1,1
89402228526,0,-12,-2,-1,1,-3,-2,0
89402228526,3,16,5,2,2,3,-1,-2
89402232182,-3,-14,-3,1,1,-1,-4,0
89402232182,1,7,-9,-5,0,-3,-2,-3
89402233577,-2,-11,0,-6,-6,-2,1,0
89402233577,3,11,2,3,2,-1,1,0
89402238604,-1,1,14,8,4,1,2,0
89402238604,-2,7,-23,-22,-15,-8,-3,-4
89402250081,-3,-9,-5,-1,3,3,1,-2
89402250081,-4,-13,-20,-9,-9,-6,-1,-1
89402262926,1,14,16,6,-8,-6,-3,-4
89402262926,1,-5,1,6,6,-1,0,-2
89402268509,-1,-12,25,7,-2,0,-1,-2
89402268509,-5,-17,-4,-5,-2,1,-2,1
89402277177,-1,4,-2,1,5,2,-2,-2
89402277177,1,-6,13,-1,-3,0,0,2
89402292179,-4,-11,-15,-8,1,-4,-1,-5
89402292179,1,-9,1,1,3,0,0,-2
89402298706,0,-5,-6,-5,-2,-1,0,-1
89402298706,-2,-2,-1,4,1,-1,-1,-1
89402337266,-5,-2,2,-2,-2,-1,-1,0
89402337266,2,-1,-8,-7,7,0,2,3
89402345428,2,9,12,10,-5,-4,-1,-3
89402345428,1,15,-9,-9,-4,-5,-1,-1
89402346047,-2,6,1,4,2,0,-3,0
89402346047,-3,-6,-26,-9,-7,-7,-1,-4
89402347650,-2,-3,-1,-4,1,7,0,2
89402347650,0,8,4,0,2,0,0,1
89402358224,2,12,7,9,-1,0,-4,-1
89402358224,-3,10,-4,-9,-2,-2,-1,-2
89402367291,1,6,-2,4,1,0,-2,-1
89402367291,-6,-4,-3,3,2,0,-1,0
89402373411,-7,-17,-14,-9,-5,-4,2,-2
89402373411,3,-1,16,7,2,3,0,1
89402388436,1,-6,-8,-2,1,2,0,3
89402388436,-1,-2,10,11,2,2,0,1
89402395932,2,0,4,1,2,0,-3,-2
89402395932,-4,-4,-1,4,-1,1,-4,0
89402404774,-3,-16,-8,-14,-2,-5,-1,-3
89402404774,3,-9,27,3,3,3,0,1
89402418417,-1,10,17,2,-5,0,-2,-1
89402418417,1,8,21,14,3,2,-1,-1
89402427228,2,17,7,1,4,4,0,1
89402427228,4,13,-10,-4,-3,0,0,-1
89402433445,-4,-27,-15,-9,-4,-9,4,-2
89402433445,-1,-5,1,-1,0,1,-1,0
89402448250,4,1,7,6,0,1,-2,1
89402448250,-5,-6,-4,1,0,0,-3,-1
89402455775,-1,14,-1,5,6,6,2,0
89402455775,-1,18,-7,-6,-4,-4,-3,0
89402464749,-5,-13,-8,-2,-4,-5,-1,-5
89402464749,0,-8,3,1,4,4,1,2
89402478443,-2,-6,-9,-2,2,3,-1,-1
89402478443,-2,-11,1,-6,-3,-3,1,-4
89402487306,1,9,7,5,4,1,-1,-2
89402487306,-6,-3,0,0,-5,-9,0,-5
89402493389,3,7,15,8,-3,1,-4,1
89402493389,-1,-13,-3,-2,0,0,2,1
89402508379,0,-3,-17,-8,-1,1,2,-2
89402508379,0,-11,-17,-6,-6,-4,-1,0
89402515814,0,-3,-8,-4,-2,-4,-3,0
89402515814,-3,-11,7,-1,2,1,-1,0
89402524712,-3,-16,-29,0,-8,-10,-2,-4
89402524712,0,-5,-9,-9,1,3,-1,0
89402538223,1,2,3,4,3,2,3,-2
89402538223,4,5,7,5,-2,-1,0,3
89402547196,-2,-4,4,-1,5,1,1,1
89402547196,-2,0,-9,-3,0,-3,-1,-4
89402553378,1,-7,-31,-15,-5,-2,-2,-4
89402553378,1,2,3,7,3,4,-3,3
89402568414,-1,12,15,-3,-1,-2,-2,1
89402568414,4,-1,-2,-2,-3,1,-1,-1
89402575716,2,5,13,11,2,2,-1,1
89402575716,0,15,4,1,-4,0,0,-3
89402584810,1,4,-9,3,3,2,1,3
89402584810,0,-9,-21,-14,-7,-6,-3,-1
89402598329,1,7,14,0,1,-1,0,-3
89402598329,0,-2,3,8,1,0,-3,2
89402607316,-3,-7,-16,-7,-2,0,0,2
89402607316,-1,-9,6,7,-1,-2,3,-4
89402613277,0,17,-4,-1,1,-1,0,3
89402613277,-1,4,-5,-10,-6,-5,-2,-4
89402628441,0,-15,-1,-2,-6,-2,1,-2
89402628441,-1,9,13,5,-1,1,1,-2
89402635908,1,-6,15,5,3,0,-1,1
89402635908,-5,23,0,-5,-9,-6,-2,-2
89402644787,-1,13,8,2,1,1,-5,0
89402644787,-1,13,13,5,1,1,0,-1
89402658335,-2,-8,-1,-4,1,-4,0,-2
89402658335,0,-15,-24,-3,-4,-1,1,-1
89402667200,0,-8,9,6,0,0,1,-1
89402667200,0,0,-4,2,0,0,-1,3
89402673431,1,-3,-9,-6,1,2,0,-1
89402673431,2,-5,7,0,6,3,-1,0
89402689839,-1,-8,-19,-5,-2,-6,1,-5
89402689839,2,4,-2,4,-2,-1,-2,1
89402695996,-3,-2,0,0,-3,-3,-2,-1
89402695996,2,-3,-5,4,-2,-2,0,-1
89402704737,2,27,24,3,1,1,-3,3
89402704737,-2,-18,-15,-8,6,7,0,2
89402718402,-4,-5,2,4,-2,2,0,-1
89402718402,3,3,0,3,1,2,2,-1
89402727310,-1,1,0,2,2,2,-1,4
89402727310,-1,3,2,-1,0,0,-3,1
89402733247,0,14,9,1,1,2,1,-3
89402733247,1,4,13,2,0,1,0,-2
89402748439,-4,-9,-4,2,-2,-4,-3,0
89402748439,1,12,5,-3,-4,-3,-1,-3
89402755829,1,5,16,10,3,3,-3,2
89402755829,-3,-4,-12,-7,-8,-7,-3,-2
89402770874,-1,2,12,5,-1,-1,3,-1
89402770874,-4,-3,-29,-12,-5,-1,-3,-1
89402778398,2,13,11,3,0,3,-1,0
89402778398,-4,-9,2,2,1,-5,2,-4
89402787241,0,-18,-5,-7,-6,-2,-5,-1
89402787241,0,-10,13,8,5,0,1,2
89402793411,0,-7,-17,-2,-3,-3,0,1
89402793411,-5,-11,-14,-4,-3,2,-1,-2
89402808414,1,3,8,4,5,5,0,-3
89402808414,-2,16,31,13,-1,-3,-2,1
89402815952,-2,-29,-77,-35,-16,-11,-2,-5
89402815952,4,5,24,9,9,4,1,-2
89402830887,-7,-5,-15,-14,-11,-4,-2,-3
89402830887,4,1,12,9,-1,1,2,1
89402838473,-8,-21,-10,-9,0,-2,1,0
89402838473,-3,2,11,5,0,0,0,1
89402847300,0,6,9,2,-6,-3,2,-2
89402847300,-2,-9,-27,-28,-9,-4,0,0
89402853265,-2,-12,-1,3,1,-4,0,1
89402853265,-4,-12,-9,-12,0,-3,-2,-1
89402868433,4,17,70,31,3,5,-1,1
89402868433,-9,-14,-20,-16,-1,-6,-4,-5
89402875927,4,-2,-23,5,0,0,1,-1
89402875927,1,-6,13,-5,0,1,-1,1
89402890815,0,5,-36,-9,4,3,2,1
89402890815,2,4,37,19,2,2,1,0
89402898325,-5,-16,-16,-8,-4,-8,-5,-3
89402898325,2,7,3,11,-4,-1,0,1
89402907295,-7,-35,-29,-18,2,-8,3,-2
89402907295,-1,11,13,11,2,5,-2,-1
89402913300,4,9,6,-4,9,5,1,1
89402913300,1,11,22,6,2,6,-2,3
89402928411,3,6,9,6,0,0,0,0
89402928411,-3,-13,-24,-13,-1,-6,0,-6
89402935830,5,23,34,19,4,9,0,0
89402935830,0,13,3,6,9,2,-3,4
89402950921,-4,-3,-1,-2,1,2,-2,-2
89402950921,2,6,-8,5,-5,-4,0,-2
89402958381,4,22,66,32,1,14,-2,6
89402958381,-3,-15,8,-11,-3,-3,-1,-2
89402967240,-1,-7,-31,-5,-1,0,0,-1
89402967240,2,12,16,15,11,6,1,1
89402973296,1,-7,5,-11,-8,-8,-3,1
89402973296,0,-4,-19,4,1,-1,0,0
89402988506,-1,15,42,8,5,7,0,2
89402988506,-2,-8,15,-6,-13,-8,-3,-5
89402995979,-2,-5,-2,-1,2,1,0,1
89402995979,0,-2,-15,-5,10,-1,1,0
89403010731,3,1,-16,26,-7,-4,-1,0
89403010731,-1,-28,-62,-24,6,0,-1,-4
89403018226,2,11,24,6,7,6,2,2
89403018226,4,11,15,21,7,12,0,3
89403027215,-1,-13,-27,-22,-7,-8,-1,-2
89403027215,2,11,23,21,7,2,0,3
89403042005,-1,-9,-13,-8,-2,-8,-1,-4
89403042005,-7,-31,-35,-14,-7,-4,-3,-5
89403048279,8,14,28,12,15,13,2,2
89403048279,8,23,31,17,-5,4,-1,5
89403055740,-4,-1,-2,9,1,-8,-1,-3
89403055740,2,12,11,-1,-7,-2,0,0
89403070900,-5,9,4,9,-5,-7,-2,0
89403070900,-1,-5,23,-2,12,3,1,0
89403078398,-1,9,44,27,9,13,-1,1
89403078398,-1,11,-17,-11,-13,-5,-4,-3
89403087281,-4,1,54,16,12,8,-2,2
89403087281,-5,2,-36,-52,-15,-5,-3,0
89403101603,-2,7,4,0,1,0,-3,-1
89403101603,-1,-2,-33,-15,-4,-10,2,-3
89403108302,2,2,11,3,-2,5,-3,0
89403108302,2,16,25,14,7,9,1,4
89403115886,2,-6,-28,11,1,-1,3,-2
89403115886,-5,-12,11,-5,1,1,-3,-1
89403130899,5,11,28,24,19,6,2,1
89403130899,-4,-15,-1,22,-19,-4,-3,-1
89403147286,2,4,-6,-26,5,1,0,1
89403147286,-4,-20,-59,-7,-21,-22,-3,-5
89403148761,2,5,-21,-1,5,5,1,0
89403148761,-1,-17,-10,-3,1,-4,-2,0
89403161457,-3,-13,-19,-16,-9,-5,-2,-1
89403161457,3,13,15,15,6,7,4,3
89403168249,-8,-25,-55,-28,-16,-10,-2,-4
89403168249,-3,-15,-6,6,0,-3,-1,-2
89403175898,-8,-26,-52,-36,-7,-9,0,-2
89403175898,0,1,39,14,11,6,-1,0
89403190930,3,2,13,9,0,2,1,1
89403190930,-10,-15,-91,-58,-13,-10,-4,-6
89403198399,5,40,50,36,8,7,2,2
89403198399,-10,-11,-25,-25,-20,-12,-5,-5
89403207276,4,2,17,8,8,5,5,0
89403207276,-1,5,25,15,4,0,-4,-2
89403221395,-3,-2,31,-1,-3,-4,-4,-1
89403221395,0,9,4,4,5,10,0,3
89403229803,1,11,30,1,-1,2,-3,-1
89403229803,1,9,-13,-8,-7,1,-2,-1
89403235831,-5,-26,-49,-25,-13,-12,-1,-2
89403235831,3,4,12,8,22,4,3,1
89403250755,-3,5,16,12,-7,1,-4,2
89403250755,5,6,9,3,15,10,1,3
89403258228,-3,-2,-4,0,-8,0,0,0
89403258228,1,4,25,3,-5,-2,-1,0
89403267257,-4,-14,-32,-14,-2,-6,0,-4
89403267257,-6,-14,7,0,-5,-8,2,-5
89403281563,6,8,80,37,19,17,0,5
89403281563,0,-2,16,5,-11,-3,-4,0
89403288274,-1,4,-4,-15,-1,-5,1,-2
89403288274,-2,7,24,16,-1,-5,1,0
89403295776,1,-2,-6,-6,1,-1,-2,-4
89403295776,1,0,-12,-4,2,5,2,-1
89403312300,-5,-13,-15,-12,-6,-8,-1,-5
89403312300,5,4,29,26,15,9,1,4
89403326630,1,6,-20,-1,-18,-11,1,1
89403326630,-3,-7,-46,-10,-2,-2,-4,-2
89403333410,4,7,-4,-2,-1,0,0,2
89403333410,0,0,-2,2,-14,-9,-2,-6
89403341606,0,4,-22,-26,-7,-2,0,-3
89403341606,6,3,5,-11,-5,-3,1,0
89403364708,-2,-7,5,-12,-16,-10,-1,-3
89403364708,0,-8,-49,-32,1,-4,-1,-2
89403365349,-1,-3,0,6,3,1,0,-3
89403365349,4,9,51,17,18,12,1,5
89403378939,-6,-19,-64,-42,-31,-21,-3,-2
89403378939,3,9,40,17,11,11,4,1
89403379684,-1,1,1,3,-1,-1,0,-4
89403379684,1,-7,-8,1,-1,1,-1,0
89403393275,-1,-2,14,11,6,5,0,-1
89403393275,2,2,23,6,3,4,-2,1
89403401634,2,4,10,7,-3,0,-2,1
89403401634,-8,-14,-57,-26,-11,-10,0,-5
89403416721,2,9,2,6,5,3,0,-1
89403416721,1,11,14,2,1,2,0,2
89403417211,-1,1,-3,12,5,2,0,-1
89403417211,-2,-12,-13,-7,-7,-4,-2,0
89403430836,3,1,-1,5,6,1,0,1
89403430836,-3,-3,-16,-18,-16,-13,-1,-7
89403438436,0,-11,-15,-5,4,-4,-3,1
89403438436,0,18,34,18,12,8,4,4
89403453268,3,-1,-43,5,-8,1,-3,3
89403453268,2,2,28,17,2,-1,-2,3
89403461632,-1,8,2,-1,-2,1,1,0
89403461632,4,14,25,16,3,2,-1,2
89403476472,-3,-5,-13,-23,-5,-2,0,0
89403476472,1,-6,-9,-2,0,2,0,3
89403477207,-2,-9,-8,-4,-2,-2,1,0
89403477207,-2,-11,12,9,7,-1,1,-2
89403490710,-4,7,43,7,6,4,-2,-1
89403490710,1,-8,-28,4,-1,-3,1,-1
89403498186,1,0,-4,-11,-16,-3,-5,-3
89403498186,-3,-3,-1,-7,4,-1,0,-3
89403513398,0,1,13,11,3,0,2,-2
89403513398,-1,-2,9,8,4,7,2,2
89403521458,-5,23,-17,-15,-6,-8,-2,0
89403521458,2,-26,-10,3,-4,-1,-3,-8
89403536437,4,-29,5,-2,2,6,-3,2
89403536437,-1,7,4,15,3,1,-1,4
89403537220,-30,-85,-32,-31,-3,-12,-5,-23
89403537220,8,17,9,4,-4,5,-3,-4
89403550740,-5,-36,-1,2,3,-1,3,9
89403550740,-6,-40,-12,-5,-2,0,-1,-1
89403558263,2,-13,-15,1,1,-1,3,7
89403558263,1,21,8,6,3,0,0,1
89403573425,-5,4,-2,-8,-4,-3,-1,-4
89403573425,12,40,25,11,11,7,10,1
89403581769,-6,-18,2,-14,-15,-17,-18,-16
89403581769,-14,24,20,5,-2,4,9,2
89403596444,5,40,-1,3,-8,-6,-7,-1
89403596444,-2,17,-8,-9,-8,-6,-8,0
89403597244,15,35,27,21,12,14,6,6
89403597244,0,-26,-22,-7,-1,-7,-3,1
89403610905,1,14,14,9,4,3,0,1
89403610905,-6,-4,0,-8,-3,-4,2,-7
89403618294,3,-2,-28,-5,-3,-1,-2,11
89403618294,0,-13,3,-1,-2,-2,-8,-2
89403633448,-9,-6,-8,1,6,0,12,-1
89403633448,7,-9,-12,-1,2,0,-25,2
89403641514,-2,17,14,22,10,15,41,2
89403641514,12,30,8,-8,-7,-5,-16,12
89403656544,-19,8,-5,-13,-10,-18,-6,-6
89403656544,21,17,1,18,4,12,0,31
89403657280,4,-5,3,4,3,7,10,14
89403657280,-5,-18,-8,1,6,2,14,2
89403670949,-20,-46,-14,-13,-16,-33,-32,3
89403670949,24,-6,1,-9,-6,10,-24,20
89403678496,-12,4,-10,7,4,-2,13,-2
89403678496,2,-19,-11,0,1,2,4,5
89403693341,1,8,3,8,9,18,-3,-14
89403693341,-3,-10,-3,-10,-4,-22,15,4
89403701478,-7,6,16,2,6,24,-5,-7
89403701478,-3,-8,0,-17,-19,-37,-40,-5
89403716608,-14,-11,-24,-6,-4,16,24,0
89403716608,-19,2,-4,2,4,-17,10,36
89403717281,11,16,24,-8,-6,7,-29,-51
89403717281,2,1,-2,2,1,0,-7,4
89403730763,6,-1,7,0,2,-1,14,-4
89403730763,-12,-15,-20,-13,-2,-8,-1,-12
89403738286,6,-9,-5,7,4,3,5,23
89403738286,-12,-28,-12,-13,-8,-9,16,-15
89403753210,28,15,9,16,6,16,17,23
89403753210,27,1,-10,22,13,14,34,-5
89403761538,40,1,-8,12,-5,0,-22,54
89403761538,-42,1,19,-28,-17,-10,-70,-83
89403776502,17,-1,7,3,14,17,-28,71
89403776502,23,6,9,1,-10,-3,-1,-23
89403777258,-5,11,2,-3,6,2,-27,3
89403777258,6,4,-10,19,14,11,47,22
89403792213,-10,3,-2,-4,-3,-6,-11,-15
89403792213,-38,-9,12,-6,2,-5,-26,-36
89403798394,8,19,0,-1,-6,-4,13,-4
89403798394,-20,9,3,3,5,4,-9,19
89403813424,54,21,22,-5,-3,2,-37,-11
89403813424,-1,-5,3,16,13,16,32,28
89403821568,4,7,-8,8,-3,-26,78,8
89403821568,8,1,1,15,23,36,11,-7
89403836601,18,18,9,-6,-16,-12,4,-12
89403836601,-16,-7,5,-15,-2,-1,-23,-24
89403837251,6,-7,3,3,5,3,21,19
89403837251,30,10,-15,7,-4,-6,20,34
89403850951,-19,-17,-5,4,11,13,4,-16
89403850951,4,5,-1,-8,-12,6,21,-5
89403858420,0,-7,-10,-2,-8,-12,-38,-19
89403858420,1,-1,-5,-1,4,-7,20,0
89403873998,-17,-2,1,-10,-11,-17,17,-24
89403873998,-9,5,-2,-1,-2,10,17,-5
89403881697,-13,-33,19,-14,-1,-25,-38,-11
89403881697,-5,-15,-14,4,-6,3,8,6
89403896603,5,4,-1,-4,0,-35,-64,-27
89403896603,2,7,10,-5,6,9,47,1
89403897245,-10,0,10,-21,-21,-9,-56,-10
89403897245,-4,-12,2,-17,-9,-2,-14,1
89403910865,-19,-6,-3,-7,-3,-37,-4,3
89403910865,-2,-9,-7,3,1,11,-4,26
89403918462,-1,2,-13,9,10,12,10,21
89403918462,-7,2,2,-11,-9,0,0,-21
89403933490,-24,-11,6,-13,1,-5,-12,-28
89403933490,-21,13,-7,3,-8,-15,-37,-46
89403941628,-5,13,0,15,7,45,49,24
89403941628,-11,-19,-9,-10,-10,-43,-58,-21
89403956621,13,-1,1,7,5,41,39,15
89403956621,-4,-3,-9,10,1,0,-15,4
89403957293,11,-7,2,-10,1,-25,-58,-18
89403957293,-8,9,25,-5,3,28,28,8
89403970981,-10,7,-2,-1,-3,-3,-1,-10
89403970981,0,-8,0,-14,-16,-33,-19,16
89403978485,-12,-8,-7,-11,-2,-4,-13,-13
89403978485,9,6,2,6,9,-3,34,12
89403993333,-1,-6,0,-10,-4,-8,-15,0
89403993333,0,-5,-1,-2,4,2,-20,-9
89404001625,-1,8,-2,16,3,25,36,12
89404001625,33,19,3,11,-7,-12,-44,16
89404016059,-3,-4,-15,12,3,18,30,20
89404016059,1,1,2,2,1,4,10,0
89404024137,-10,2,3,3,0,0,4,-1
89404024137,-9,0,-2,4,1,-16,-1,-15
89404030977,4,6,-2,6,-1,38,0,-1
89404030977,2,-5,-2,-4,-2,-7,-7,-1
89404038510,-4,7,3,3,2,-9,-1,-9
89404038510,5,6,-1,5,2,7,8,-1
89404053268,3,5,1,11,6,-1,18,9
89404053268,-3,2,3,4,2,-8,8,-5
89404061696,5,1,4,1,5,20,9,-7
89404061696,4,-2,-4,7,-2,24,20,8
89404075804,-3,-6,-9,6,4,-2,5,4
89404075804,4,6,8,0,0,9,10,6
89404084150,-8,-6,-10,-3,-4,-18,-2,-12
89404084150,5,3,-1,6,3,-7,0,16
89404090942,3,-3,0,8,-1,13,7,9
89404090942,-4,-15,-10,-8,-5,-5,-8,-5
89404098463,-2,-8,-5,5,6,1,15,6
89404098463,-8,-10,-3,0,-3,6,-4,1
89404113453,-6,-4,0,-1,-2,-15,2,-1
89404113453,10,0,1,-1,1,6,-1,-2
89404121697,1,4,2,-4,-5,-4,-6,-4
89404121697,2,28,-2,3,-2,-2,7,1
89404137362,-2,50,1,0,-4,-6,0,-5
89404137362,1,7,1,2,2,1,-7,1
89404144274,-5,-5,1,-9,-8,-14,-6,-11
89404144274,2,-16,9,13,9,7,3,0
89404159002,0,-15,-5,1,-1,-4,3,-1
89404159002,0,4,1,7,1,7,-2,-1
89404159757,-3,-14,-12,-7,-1,0,0,-4
89404159757,3,-5,4,-9,-7,-4,-1,-4
89404173450,1,-13,-3,-3,0,0,-2,1
89404173450,-6,-8,-6,10,2,1,-3,0
89404181725,0,-10,4,-8,-3,-6,1,-7
89404181725,0,5,-6,-2,-1,2,-1,2
89404195961,1,15,-2,-7,-3,-6,-2,-2
89404195961,0,4,7,-7,-2,-1,-3,-4
89404204174,0,3,-3,3,-1,-1,0,-2
89404204174,1,2,-5,-6,-2,3,2,-2
89404219165,-3,3,-1,-9,-9,-5,0,0
89404219165,-4,-50,10,13,5,2,-2,-2
89404219781,1,-35,-35,-9,3,3,1,-3
89404219781,0,15,4,-1,5,2,4,-1
89404233406,1,28,8,22,9,2,0,0
89404233406,-1,55,3,-7,-4,-3,0,0
89404241586,-1,38,10,-3,-11,-7,-3,-3
89404241586,-1,-6,-12,-8,-11,-2,0,-3
89404255809,0,-12,9,-14,-3,1,3,0
89404255809,-1,-19,-8,-5,-2,-4,-1,-2
89404263980,1,-13,3,8,7,5,-3,0
89404263980,0,-17,-12,4,0,-2,0,-1
89404278969,2,-27,24,8,8,3,-2,-1
89404278969,0,-115,-36,-10,-17,-13,1,-4
89404279726,-1,-39,7,1,-4,2,-4,0
89404279726,-5,26,5,10,-3,-3,-2,-4
89404293307,-1,56,5,5,16,3,4,1
89404293307,-1,81,9,-16,-6,-4,-3,-4
89404301563,-2,56,-27,-4,-13,-8,1,-1
89404301563,1,6,20,8,3,3,-1,-1
89404315858,-4,-12,-41,-14,-6,-4,-1,-4
89404315858,2,5,11,5,10,10,-1,8
89404324149,-2,-6,17,-5,-1,-1,1,0
89404324149,0,-4,13,5,-3,-2,1,-1
89404339166,0,-29,-23,-13,-6,-3,-4,-3
89404339166,0,9,31,28,6,4,-5,1
89404339754,2,-9,-57,-9,1,-3,-1,1
89404339754,1,-6,24,5,2,9,0,3
89404353534,4,-4,-2,6,13,1,-1,0
89404353534,-8,-7,-29,-22,-17,-12,-1,-11
89404361541,2,12,11,5,7,4,-2,4
89404361541,-3,1,23,8,10,7,-1,0
89404376060,-6,-20,-15,-19,-25,-15,-2,-4
89404376060,5,12,32,16,13,9,0,4
89404383968,-4,0,7,-8,-8,-8,-4,-5
89404383968,-1,-6,1,-4,0,0,2,2
89404399142,-1,-6,6,-3,3,7,0,2
89404399142,1,9,-1,10,5,1,0,2
89404399835,-4,-11,-33,-11,-14,-9,-4,-2
89404399835,5,13,82,39,26,19,4,7
89404413350,-5,-14,-64,-21,-22,-7,-4,-6
89404413350,6,8,2,-8,16,8,-1,3
89404421707,-6,-3,-1,27,7,-1,-1,-7
89404421707,3,13,51,33,0,0,-4,1
89404435813,1,2,-58,-27,-5,-7,1,-2
89404435813,-8,-27,-93,-40,-32,-27,1,-11
89404444061,8,14,55,23,19,23,1,9
89404444061,0,1,-34,-2,5,-2,0,-2
89404459159,4,9,31,8,13,13,0,5
89404459159,-5,26,16,13,-4,-7,-5,-4
89404459841,2,-13,54,6,-3,-6,4,1
89404459841,-4,-50,-44,-31,-8,-12,-3,-10
89404473510,-5,-36,56,9,-7,6,-5,-2
89404473510,9,28,101,65,36,23,5,14
89404481707,-13,6,-80,-80,-53,-44,-2,-15
89404481707,1,9,-37,-35,-2,2,-2,7
89404495996,4,15,89,87,80,38,3,5
89404495996,-8,21,-2,-36,-45,-15,-4,-2
89404504826,4,56,57,19,31,14,1,1
89404504826,-4,16,7,2,-4,-6,-1,-2
89404518484,-8,-18,-77,22,-24,-26,-1,-10
89404518484,1,-33,1,-34,-15,-5,2,-4
89404527356,9,-6,55,-19,25,23,2,7
89404527356,0,-1,-33,46,-9,-3,-2,0
89404533526,-3,-21,-44,-51,-26,-22,-4,-1
89404533526,-4,-45,11,20,31,30,1,2
89404542415,-9,-66,-101,-50,-35,-35,1,-11
89404542415,4,-33,53,2,11,14,4,6
89404555977,8,-11,25,26,-13,-1,2,8
89404555977,-13,-41,-89,-68,-27,-23,-4,-11
89404570865,3,26,58,78,32,27,0,11
89404570865,-3,21,-57,-36,-7,-13,0,-10
89404578482,2,42,72,7,6,5,1,2
89404578482,-3,13,-18,0,7,-5,0,-2
89404587334,3,25,27,38,11,14,2,3
89404587334,-4,5,-27,-11,-1,-1,0,-5
89404593495,5,20,7,4,10,6,-1,3
89404593495,2,41,-26,-20,-5,-1,-3,-1
89404602278,-3,35,7,-6,-7,-7,-4,-4
89404602278,2,-32,-12,-14,-6,-3,4,-1
89404615981,2,-41,10,-12,9,7,1,2
89404615981,6,-23,57,44,7,10,1,8
89404624811,0,-23,-14,-3,-9,-4,-3,-4
89404624811,1,7,-9,-10,-4,-8,-3,2
89404638388,-1,11,13,8,-11,-10,-3,-6
89404638388,-4,-6,-28,-11,10,4,-3,-2
89404647415,-4,-15,-31,3,-4,2,1,2
89404647415,-1,7,6,-4,-4,1,9,4
89404653424,-2,5,-20,-5,2,-1,-9,-2
89404653424,3,16,14,10,14,8,-2,0
89404662273,1,-4,-3,-17,-12,-5,-5,-4
89404662273,-3,-8,5,7,-5,-6,4,1
89404675857,-7,-8,-31,-28,-9,-7,-9,-7
89404675857,1,7,10,12,11,11,11,4
89404684921,-1,-3,16,8,4,5,4,-2
89404684921,-1,2,-6,-1,0,3,2,-4
89404698513,0,4,3,-1,-8,-16,-6,0
89404698513,6,7,5,-3,-11,2,1,0
89404707377,-3,-8,-11,3,8,-2,-6,-3
89404707377,0,2,-1,-7,-8,-5,-1,-1
89404713455,-2,-3,-11,-1,2,3,6,-1
89404713455,0,-3,4,8,1,-5,4,0
89404722301,0,-2,5,2,-3,-3,-14,2
89404722301,-3,1,-5,-12,-3,3,0,-3
89404736001,-2,2,9,6,6,6,4,0
89404736001,1,3,-4,4,-7,-13,2,-2
89404744894,0,-1,9,6,0,-6,-4,2
89404744894,-1,1,-13,-5,-4,3,-4,0
89404758477,1,4,2,2,-4,12,19,2
89404758477,0,0,11,12,6,-6,-16,-5
89404767372,0,1,4,-10,-8,1,31,13
89404767372,-1,0,-3,1,-1,8,-5,0
89404773292,0,6,-2,0,-1,12,7,8
89404773292,-3,-3,-6,2,2,5,8,2
89404782428,0,-2,-3,3,0,-2,-3,-6
89404782428,-3,-7,-9,4,4,-11,-6,3
89404795989,-1,1,-2,-5,-5,1,12,0
89404795989,-3,-2,1,-5,-8,-7,-16,-4
89404804799,-3,-3,0,-6,-1,3,-7,-8
89404804799,-1,6,5,0,-1,-10,-6,-5
89404818560,6,-1,-8,0,-2,-3,21,14
89404818560,-2,0,-1,2,-3,-11,-28,-4
89404827371,-10,4,4,-7,-1,4,15,1
89404827371,11,-1,-3,-2,0,-7,-7,3
89404843051,-6,8,5,2,-6,-4,-3,-1
89404843051,0,-1,-7,3,4,10,9,3
89404844519,12,15,7,2,4,1,-10,4
89404844519,-4,-7,-7,-2,-8,-5,-5,2
89404855867,-7,-13,-4,-5,-5,-8,-8,-22
89404855867,-1,0,1,1,-1,5,19,1
89404864783,0,8,5,1,3,3,-13,-11
89404864783,14,-6,-1,5,1,7,14,22
89404878427,-6,0,-7,-6,-2,-12,-13,4
89404878427,-7,2,-1,1,-2,-4,2,-7
89404887267,15,5,1,7,5,8,14,7
89404887267,10,-5,-1,0,-3,2,-15,-15
89404893441,-5,15,9,-3,0,-3,-2,2
89404893441,5,11,-4,2,-3,-3,1,3
89404902390,-2,-4,-1,6,7,5,-2,-1
89404902390,-11,2,4,-4,-1,-5,-4,-7
89404916013,9,-7,0,4,5,13,-2,-7
89404916013,0,-2,1,-11,-5,-3,1,17
89404924841,-11,-7,0,-8,-7,-6,0,8
89404924841,-21,-21,-4,-8,-1,-5,-6,-16
89404938349,5,16,2,1,-4,-9,-3,1
89404938349,3,13,6,-3,2,-3,-15,-11
89404954161,-8,-32,-12,-7,-5,-2,-1,-4
89404954161,1,1,-1,0,4,2,6,2
89404954832,6,13,7,3,-1,2,-1,7
89404954832,-4,12,-4,3,-2,0,10,-5
89404962390,-3,-1,-4,-1,-4,-7,-11,-5
89404962390,-4,3,2,3,4,3,4,5
89404975963,-6,-18,-1,-12,-11,-13,-24,-29
89404975963,16,-12,-9,0,1,1,18,8
89404984902,-9,4,0,-1,-7,1,-13,-9
89404984902,9,7,1,4,4,0,12,4
89404998457,6,-12,-8,-4,4,-4,-3,12
89404998457,-18,-3,1,-5,-6,3,2,-19
89405007389,6,-4,-4,1,2,3,5,-5
89405007389,-15,-2,-4,-5,-2,-10,-6,-17
89405013562,-1,0,3,4,5,8,7,1
89405013562,1,-3,-6,2,1,-5,-5,-5
89405022341,4,-2,-7,9,7,8,44,20
89405022341,5,-7,0,-6,-16,7,-25,-11
89405035996,-12,-4,1,4,5,-7,-4,0
89405035996,3,-6,2,-1,-1,-6,-2,5
89405044845,-1,-6,1,-3,-4,-13,-41,-5
89405044845,-2,4,1,0,-1,-18,5,-16
89405058349,-6,-4,-2,0,3,3,20,11
89405058349,8,-5,1,2,-2,25,11,17
89405067424,2,4,-3,1,1,-5,-13,0
89405067424,4,7,-2,0,1,0,7,0
89405073319,-6,-14,-16,5,-2,-9,-13,-5
89405073319,-3,5,10,2,4,-15,3,-7
89405082413,0,3,-3,-6,-9,-5,6,19
89405082413,-1,3,6,-4,-2,12,-6,7
89405095845,3,-2,-5,6,0,3,7,1
89405095845,1,-2,0,-4,-2,1,-10,0
89405104919,-2,-2,-5,2,-1,-5,-4,-8
89405104919,0,-1,0,3,7,2,11,3
89405118487,-2,5,0,-5,-4,1,-10,-2
89405118487,-6,-6,-4,-3,-5,-7,-12,-4
89405127336,2,16,7,-1,-1,3,2,-4
89405127336,-1,-15,-12,3,-2,0,3,4
89405142397,6,13,-2,3,5,1,10,-3
89405142397,-4,-5,1,-3,-3,8,-9,-1
89405143834,2,5,-2,-2,-4,-1,12,-5
89405143834,1,16,2,6,0,2,0,4
89405155995,0,4,4,3,4,2,-2,1
89405155995,0,-5,-5,0,2,-4,2,-3
89405164868,-1,-3,0,2,5,3,-2,-4
89405164868,-4,12,6,-2,-2,1,-5,2
89405187312,-1,-8,-15,-10,-6,0,-4,-2
89405187312,-6,-2,-2,-2,-2,-3,-4,-5
89405188831,1,-8,0,0,0,0,0,-1
89405188831,4,15,13,4,0,1,-1,2
89405202368,-4,0,-10,-11,-12,-3,0,-2
89405202368,-1,-20,-2,4,0,-2,1,-1
89405203838,-5,-11,-6,-9,17,6,1,-5
89405203838,0,-11,11,20,4,-2,-1,1
89405215842,1,-3,-8,-5,5,1,-8,-2
89405215842,-6,5,-1,-4,3,-1,-2,-1
89405224820,-2,-4,1,-5,-16,-11,-3,-2
89405224820,-1,-10,-26,-13,-3,0,-2,2
89405238360,0,7,1,-6,2,6,-2,0
89405238360,3,6,5,11,-7,-6,-1,-2
89405247415,-7,-7,-8,4,12,1,1,0
89405247415,0,3,-10,-10,-3,0,2,-4
89405262368,5,7,21,10,-2,1,-3,1
89405262368,-1,2,14,-9,-3,2,4,-1
89405263806,1,-9,2,0,-2,1,-1,-1
89405263806,3,7,-14,0,5,-10,2,-2
89405276010,0,0,12,7,-9,-3,-1,-5
89405276010,5,8,29,21,20,8,1,2
89405284941,-4,-4,-18,-12,-18,-12,-4,-2
89405284941,-5,-3,17,10,5,6,-2,4
89405298516,2,-4,1,-4,-1,-3,1,1
89405298516,-1,1,12,9,9,4,-3,2
89405307431,-1,1,21,-6,-13,-7,3,-1
89405307431,-6,-21,-58,-12,-3,-2,-3,-2
89405322387,0,3,30,13,11,2,0,2
89405322387,2,-2,-20,3,0,2,-1,2
89405323843,5,8,49,22,19,9,-3,5
89405323843,0,-2,8,-13,-29,-16,2,-7
89405335923,2,-4,-37,0,14,8,0,1
89405335923,-4,-10,-12,-33,-3,-6,-2,-6
89405344929,0,3,-19,4,-4,5,0,1
89405344929,1,3,7,3,16,18,0,7
89405358380,-4,-3,-4,26,-5,-15,-2,-6
89405358380,-4,-12,-25,-57,-24,-16,-1,-4
89405367313,5,7,19,21,12,16,1,3
89405367313,2,7,39,18,31,8,0,-2
89405382361,-5,-2,-24,-9,-34,-2,-3,-1
89405382361,2,1,23,4,14,6,1,5
89405383824,-3,-5,-21,-4,-1,-9,-1,-6
89405383824,6,-3,-6,-16,5,13,3,5
89405396028,0,6,34,-15,0,-9,-2,-6
89405396028,-5,-5,-5,37,-19,-8,-5,-4
89405404800,-3,-15,-38,-62,-16,-7,0,-2
89405404800,2,2,29,46,12,1,1,1
89405418398,2,-2,1,2,23,16,1,5
89405418398,-2,-4,-26,12,-3,-7,1,-2
89405427440,-5,-17,-28,0,-14,-9,-2,-7
89405427440,2,10,47,29,3,11,1,4
89405441436,-7,-11,1,-32,-21,-19,0,-10
89405441436,3,7,52,26,35,28,-4,5
89405449943,1,-20,-45,-16,16,3,4,-2
89405449943,-10,-13,-83,0,-49,-48,-6,-22
89405456113,-1,-1,-7,-8,8,11,-2,7
89405456113,1,-2,14,-3,3,-1,4,-1
89405464946,8,32,65,-6,-7,10,1,9
89405464946,1,15,42,73,15,16,0,4
89405479238,1,-3,-4,-24,-14,-5,2,2
89405479238,5,10,-19,-5,-18,-7,2,0
89405485914,-8,-2,-2,-23,-12,0,-3,-3
89405485914,-5,-31,-2,-50,-18,-6,-3,-4
89405502409,-5,-19,29,41,26,2,-3,-5
89405502409,3,20,-14,25,-19,-5,1,-3
89405503898,6,6,16,40,17,1,3,0
89405503898,-13,-25,-41,-81,-32,-20,-1,-7
89405516049,-17,-57,-95,-51,-10,-14,-1,-13
89405516049,1,0,18,9,19,6,2,5
89405524907,0,10,10,17,8,5,-2,1
89405524907,-10,-48,-28,-50,-25,-28,1,-10
89405539219,13,21,66,24,29,19,7,13
89405539219,-11,-18,-13,-7,-17,-8,-4,-6
89405545966,-2,-8,-33,-10,-12,-14,-2,-9
89405545966,7,32,11,-26,4,5,2,8
89405562394,-4,3,-4,-13,-13,-3,-2,-2
89405562394,4,14,30,-8,5,2,0,5
89405563828,-2,-8,41,55,21,7,-1,-1
89405563828,1,11,12,11,7,7,-3,3
89405575955,5,20,3,17,-5,2,2,-1
89405575955,4,17,-34,-4,18,6,-1,1
89405584879,-7,-14,-32,-17,-37,-24,-4,-11
89405584879,2,8,-4,-4,15,5,0,2
89405599143,2,13,15,5,-3,1,-2,2
89405599143,0,-15,-7,-10,-8,-2,-3,-1
89405606031,2,-2,1,-8,3,-1,1,3
89405606031,0,3,14,12,0,-1,0,-2
89405622401,10,9,5,15,-2,0,-2,5
89405622401,-2,-1,17,-5,-12,-8,-3,-6
89405623853,5,5,12,8,10,8,2,4
89405623853,2,10,6,11,2,8,0,2
89405636007,0,2,11,7,4,0,-2,1
89405636007,-1,-5,1,0,1,1,0,-5
89405652353,-1,10,13,3,1,2,2,2
89405652353,2,9,13,21,8,8,-2,-1
89405659623,-1,-1,-11,-14,-9,-6,0,-3
89405659623,-5,-17,-19,-18,-10,-6,1,-1
89405667443,-2,3,-6,6,4,1,-1,-1
89405667443,2,7,8,0,18,7,2,0
89405682380,-4,-7,-4,8,-7,-2,-5,-1
89405682380,-5,-6,1,-2,-1,-1,1,-1
89405683831,2,1,-3,-6,-5,-1,-1,-3
89405683831,0,-2,-8,-3,4,0,-2,3
89405695885,4,6,-25,6,2,3,-2,-1
89405695885,-1,-7,3,2,1,0,0,2
89405704826,1,10,4,-6,-8,-5,-4,-1
89405704826,-3,-2,6,7,0,0,-2,-1
89405719197,-3,-4,-3,-7,0,-5,-3,-1
89405719197,-1,3,6,2,3,1,-1,-1
89405725968,1,1,0,5,1,1,1,1
89405725968,-1,-7,-3,0,-3,-1,-3,1
89405742420,-1,-4,24,-1,0,-2,-3,2
89405742420,-3,4,-4,0,-2,-1,-1,-2
89405743852,-2,1,7,-2,2,2,1,1
89405743852,3,2,-18,-9,-8,-5,-2,-2
89405756005,-1,3,11,13,0,4,1,1
89405756005,-2,1,-8,-5,0,-3,0,2
89405764943,-2,-24,-32,-11,-2,-6,-2,4
89405764943,-3,12,10,11,5,2,-2,-4
89405779222,2,-1,-11,-10,-10,-9,2,2
89405779222,1,-2,-2,-3,1,4,-2,1
89405786005,10,2,4,0,6,2,0,-6
89405786005,-5,-8,-3,-1,-7,-3,1,4
89405802386,-5,2,-3,2,-1,0,-1,-7
89405802386,3,-8,1,3,-1,-3,-1,-8
89405803852,-16,17,8,-1,-2,1,2,7
89405803852,3,12,-1,8,3,1,-1,5
89405816061,-7,-8,2,-13,-7,-11,-5,-42
89405816061,7,11,-2,-14,-7,-5,-13,-18
89405824920,-4,-2,3,5,7,2,3,-8
89405824920,2,-5,-1,-5,1,-3,1,-1
89405839184,1,1,6,4,0,-1,-3,0
89405839184,0,-4,-7,3,-1,1,4,8
89405845869,1,-6,0,-7,-4,-4,-4,-5
89405845869,-2,1,3,3,4,3,1,-6
89405862402,0,-6,-13,-2,0,3,5,10
89405862402,-1,-16,6,-2,-2,-1,2,0
89405863849,2,-10,-10,0,-2,-1,3,1
89405863849,-1,-2,3,-3,2,0,3,4
89405876030,-2,10,6,-4,-1,0,-2,-8
89405876030,2,6,-2,2,0,0,-4,-1
89405884905,-6,-5,1,-3,-5,-4,-2,6
89405884905,0,2,-3,4,3,3,0,-1
89405899258,1,-5,-1,-3,-1,-1,2,5
89405899258,-6,8,6,3,5,2,1,-1
89405906046,19,1,2,2,1,2,-3,-1
89405906046,-2,4,4,-6,-5,-8,-4,5
89405921327,-6,2,2,9,-1,5,4,18
89405921327,1,11,-1,4,-1,-3,2,9
89405929944,0,6,3,6,4,1,-1,0
89405929944,0,3,-4,0,0,1,3,3
89405936030,9,-1,5,-1,-4,-1,-3,2
89405936030,-3,-7,-3,1,-2,-1,0,4
89405944930,-3,-3,0,2,1,1,2,3
89405944930,2,5,0,4,3,1,-1,-8
89405959287,-3,1,-1,0,0,-2,2,-1
89405959287,-2,5,-1,-4,-5,-3,-1,-4
89405966083,-3,6,0,-2,-2,-1,-2,-6
89405966083,8,-4,-1,4,-1,2,0,4
89405981731,-1,2,1,3,6,5,5,1
89405981731,-20,-9,-4,-1,-3,-2,-4,-2
89405988508,2,3,1,2,0,1,3,2
89405988508,-10,-6,2,-3,-3,-4,-3,-6
89405995988,-10,9,1,-2,-2,-1,-1,-3
89405995988,13,0,2,5,4,2,5,6
89406012418,-16,-9,-2,-8,-5,-5,-2,-7
89406012418,15,-1,-4,6,-2,6,3,5
89406019255,-1,-5,1,1,4,0,3,-1
89406019255,-3,0,2,-3,-2,-1,-1,-2
89406025952,9,6,2,6,4,2,4,7
89406025952,-6,-6,-3,-4,-8,-4,-4,-3
89406041541,3,-12,0,-2,1,-4,-2,-2
89406041541,3,6,1,3,3,1,3,0
89406048327,3,3,-1,-5,-5,-2,-4,-1
89406048327,-6,-10,1,-4,-3,-5,0,-3
89406055871,-9,4,2,-3,-1,-1,-3,0
89406055871,4,-6,-4,-1,-5,-4,3,-1
89406064855,5,2,2,-7,-4,-3,-2,-3
89406064855,-16,0,-6,-8,-1,-5,-1,-6
89406079092,12,7,2,3,-9,-3,-1,5
89406079092,8,0,-2,-3,1,3,1,1
89406085863,-7,3,5,6,5,2,-2,-1
89406085863,2,-3,0,-8,-8,-6,-7,-3
89406101526,7,3,-4,1,-6,-1,-2,-2
89406101526,-5,1,0,-17,-5,0,1,1
89406108326,-3,-3,-2,18,10,4,6,1
89406108326,2,-5,-2,6,18,1,2,0
89406124694,4,2,0,-2,-6,-3,-2,3
89406124694,-6,-2,-3,-2,-4,-2,-2,-2
89406126302,-3,-2,0,-5,-5,-2,-2,1
89406126302,-1,-2,-3,-6,-9,1,0,0
89406139034,2,-2,-3,14,10,7,0,-1
89406139034,0,1,-1,5,4,-2,-2,2
89406145900,-2,-2,-2,3,-6,-1,-2,-3
89406145900,3,3,1,1,10,5,1,1
89406161531,-9,-3,-3,-7,-3,-1,-1,1
89406161531,3,-4,-1,1,2,1,-3,-3
89406168355,0,-1,-6,7,8,-1,2,-1
89406168355,-1,-1,4,2,-9,-1,1,-4
89406184739,-1,-2,-3,-5,5,4,-2,-1
89406184739,-7,2,-4,-1,1,-1,-1,-1
89406186336,5,-2,1,-13,-6,-5,-4,0
89406186336,-3,-2,-5,2,-4,2,2,-1
89406199090,-1,0,4,3,3,-3,0,3
89406199090,2,0,2,6,1,1,3,-3
89406205857,0,4,-1,-1,-1,-1,-2,-3
89406205857,0,-1,-2,-3,-4,1,1,3
89406221559,-7,-2,-3,7,8,7,1,-3
89406221559,5,-13,4,-9,-6,-11,-14,-7
89406228376,4,25,-7,4,-7,9,19,17
89406228376,-32,-19,-16,-20,-11,-25,-15,-22
89406244749,7,7,1,-2,-9,2,-12,4
89406244749,1,4,-2,5,2,2,12,4
89406246306,-2,4,3,-1,7,6,-5,0
89406246306,8,7,3,0,-6,-1,12,11
89406259056,1,-6,-2,2,0,-2,-1,-2
89406259056,-7,-4,-11,0,2,-2,-5,-6
89406265877,3,-5,4,-8,-2,-3,-4,-1
89406265877,1,6,2,4,1,6,-2,0
89406281579,-2,-5,-2,-3,-4,-3,-4,-5
89406281579,5,3,0,0,-9,1,3,6
89406288409,-8,-8,2,2,5,-1,-3,-6
89406288409,6,1,2,-2,-2,3,-4,1
89406305349,-4,2,-3,2,3,0,2,0
89406305349,-4,1,2,3,1,-1,4,4
89406306928,0,-8,-3,-7,-6,-2,-4,-5
89406306928,-2,-2,8,4,5,0,-1,-3
89406318376,0,3,-3,-8,-2,-2,1,1
89406318376,-2,0,-4,14,10,3,-3,0
89406327357,-2,-5,1,4,-5,-1,-5,-2
89406327357,7,1,2,8,10,3,2,1
89406341592,0,-2,0,-5,-8,-7,4,-4
89406341592,1,2,4,-9,-6,0,-3,1
89406348349,-2,-5,-6,-10,-6,-2,-1,-2
89406348349,2,5,4,2,0,-1,-1,-1
89406364714,-3,-3,2,14,11,0,2,-3
89406364714,-6,2,0,-3,-4,0,-3,-6
89406366358,1,-5,2,1,2,1,1,1
89406366358,6,4,-3,-1,-1,1,0,3
89406378390,-1,-3,3,-6,-7,-3,0,3
89406378390,-1,0,6,9,6,4,-3,0
89406387329,-4,-4,6,-4,5,-1,1,-3
89406387329,3,0,4,16,5,1,0,0
89406401535,-1,-4,-23,-19,-7,-1,-1,0
89406401535,-2,-6,-14,3,3,-2,1,0
89406408390,1,-1,1,0,2,-2,-2,0
89406408390,-5,-6,-6,3,13,8,-4,2
89406424698,1,3,15,1,-3,3,1,-2
89406424698,1,-1,-13,-6,-6,-3,1,-1
89406426326,0,-1,18,4,3,5,-4,-1
89406426326,3,0,-16,-15,-10,-6,0,2
89406438366,-6,-7,-28,-13,-6,0,2,-4
89406438366,1,5,19,-6,0,4,-2,2
89406447393,-2,3,-1,12,7,3,0,-2
89406447393,0,1,7,0,0,-5,-1,-1
89406461613,0,3,4,10,2,0,-1,4
89406461613,0,-1,9,-4,-9,-5,1,-2
89406468382,1,-1,-22,-5,-14,-8,-4,-3
89406468382,0,0,24,21,9,8,0,-1
89406484772,-1,4,14,5,9,-1,1,1
89406484772,-4,-3,-16,-13,-8,-3,-4,-6
89406486333,2,5,10,2,-3,-3,0,3
89406486333,0,-1,-8,-6,-2,0,0,2
89406498354,-3,-6,6,10,4,4,-2,-2
89406498354,4,5,9,3,-1,-7,-2,3
89406507357,-4,-7,-10,10,17,6,2,1
89406507357,-6,-1,-12,-8,-14,-5,-1,-4
89406521590,-4,-16,2,-11,-5,1,-1,-5
89406521590,-1,4,-4,-4,-3,-11,-3,1
89406528339,2,13,-3,13,-6,-3,-1,0
89406528339,-10,-18,-13,11,2,9,0,-6
89406544707,2,6,19,10,8,2,1,1
89406544707,1,3,0,-2,3,3,-2,1
89406546303,0,-9,-13,-15,-15,-10,-3,-2
89406546303,5,11,26,3,0,-3,1,4
89406558421,0,2,-9,-17,-6,-8,-4,-4
89406558421,1,2,10,18,11,12,1,-1
89406567394,-9,-10,-7,-1,-2,-1,1,-1
89406567394,6,9,2,-12,0,0,-1,4
89406581598,-1,2,-21,11,1,3,-8,-3
89406581598,6,9,27,13,14,5,7,6
89406588403,0,1,10,1,0,-1,-3,-4
89406588403,-2,-3,-22,0,-1,-2,-2,-3
89406604774,3,9,5,2,-4,-5,-1,2
89406604774,-4,-10,-11,-4,-4,-3,0,-2
89406606334,3,2,3,-2,0,0,-2,-1
89406606334,0,-1,1,1,-2,-1,3,-2
89406618386,-1,-3,-10,-6,-2,-4,3,0
89406618386,-2,-5,-6,-4,-3,4,1,-2
89406627382,0,-8,-3,-6,6,-2,-3,-3
89406627382,-4,3,-7,-4,-4,-1,-4,-3
89406641550,1,-4,10,2,5,0,0,2
89406641550,-3,-6,-12,-6,-3,-2,1,-2
89406648376,1,3,5,-2,-1,1,2,1
89406648376,1,0,-12,-4,-4,-1,-1,-1
89406664732,-3,1,3,5,-4,-2,2,0
89406664732,-8,-8,-9,-5,-1,-1,-3,-5
89406666334,-1,2,7,-5,1,-3,2,0
89406666334,2,-1,-1,-3,-1,4,2,-1
89406678409,-1,0,-2,-3,-4,-2,-3,-2
89406678409,1,3,-3,1,-4,-1,-4,-3
89406687330,0,-4,-7,-4,-3,1,-1,0
89406687330,0,-5,6,1,2,-3,2,0
89406701619,0,1,-3,5,3,3,5,0
89406701619,0,-1,2,-2,-3,-1,-2,-2
89406708393,-2,-2,-5,-8,-5,0,1,0
89406708393,1,-2,10,3,0,-4,-2,-2
89406724754,2,0,1,-2,4,2,0,1
89406724754,-1,0,11,-4,-4,-5,0,-1
89406726373,-3,-1,-5,4,-3,-3,1,-3
89406726373,-1,0,-2,-1,1,3,1,0
89406738383,0,-2,1,1,-2,-1,-3,-3
89406738383,0,-3,-12,-5,-4,-5,0,0
89406747398,1,3,6,4,2,5,-1,0
89406747398,0,-2,-1,-10,-4,-7,-2,0
89406761610,-1,-2,-2,0,1,1,0,1
89406761610,-1,-2,-1,-1,0,-3,0,-1
89406768375,-1,0,-3,0,-4,-1,-3,1
89406768375,-4,-3,1,-2,0,2,3,-2
89406784765,2,2,4,0,0,0,6,0
89406784765,-1,-1,-2,2,-1,-1,-1,0
89406786325,0,4,-3,-1,1,1,3,-1
89406786325,-3,-6,0,-2,-4,-5,-4,1
89406798416,-3,3,8,-2,-1,3,0,-1
89406798416,-2,-5,-5,3,5,-3,-3,0
89406807415,-2,1,-2,-4,-2,-1,4,0
89406807415,2,2,4,2,3,4,0,1
89406821585,-1,-4,-19,-6,-8,-9,-3,-2
89406821585,2,-1,2,6,2,5,2,0
89406828432,0,0,5,-1,3,-1,-3,-1
89406828432,-1,1,2,0,-1,-4,-1,2
89406844102,3,0,-1,0,-2,3,1,1
89406844102,0,4,2,4,4,6,2,-1
89406850889,-1,-2,-3,-1,-2,-2,0,-2
89406850889,1,0,1,0,1,-3,-5,-4
89406858412,-2,-8,0,4,-2,-2,-1,0
89406858412,0,3,-1,-2,-3,-1,-2,1
89406867375,0,-3,-1,-2,0,-4,-6,-1
89406867375,-3,-1,-5,-1,3,3,3,-2
89406881639,-2,-2,1,-4,1,0,-1,0
89406881639,1,-1,5,3,-3,-3,-2,2
89406888419,-2,-3,-10,-2,-3,-1,1,-1
89406888419,1,0,-5,-1,-3,1,1,-1
89406904115,-1,-3,3,-1,0,-1,-3,-3
89406904115,1,-1,-2,-4,3,1,0,-2
89406910890,-2,1,6,3,-2,-4,-1,0
89406910890,-3,0,-3,-1,-3,-4,-2,-2
89406918397,1,1,4,1,-2,-2,0,1
89406918397,1,0,-5,0,2,5,2,3
89406927490,-2,-3,-1,-4,-2,-1,2,3
89406927490,-4,-3,-1,-4,-1,-2,-6,-27
89406941628,5,0,2,1,3,0,1,2
89406941628,-4,-5,1,-1,-3,-3,0,-6
89406948384,-3,-3,0,3,-2,-1,-6,2
89406948384,-1,1,3,-2,6,5,4,6
89406964120,1,0,-4,2,-2,-7,-5,-5
89406964120,-1,0,-3,-1,-9,-3,-2,0
89406970909,1,1,6,7,13,10,3,2
89406970909,1,0,-5,0,1,-1,-2,5
89406978425,-3,2,0,-3,-1,1,-1,-3
89406978425,0,-3,4,2,-2,-7,-1,4
89406987388,2,-1,-3,-5,-6,-2,-3,-8
89406987388,-3,-4,2,-1,-2,0,-1,3
89407001589,-1,-2,-3,1,1,2,-2,2
89407001589,-6,0,-5,-2,-2,-2,1,-5
89407008409,1,0,1,0,-1,-2,-7,6
89407008409,1,2,3,-4,-3,-5,-7,4
89407024117,-2,0,4,-2,0,-2,3,-8
89407024117,-2,-7,-9,-9,-5,-1,1,-4
89407030911,1,0,3,1,2,0,2,-2
89407030911,0,-1,-1,2,-3,-2,0,4
89407047274,-3,0,-1,-2,-1,-1,-5,-7
89407047274,3,0,1,0,6,3,-3,3
89407048854,-1,2,-1,-3,-4,-4,1,-2
89407048854,-1,-4,-7,0,-4,0,2,0
89407061595,0,-3,2,1,2,3,0,3
89407061595,-2,1,3,2,0,0,0,1
89407068374,0,2,-4,-7,-4,-5,0,-1
89407068374,3,2,2,3,1,0,0,-1
89407084094,-1,-1,-7,-4,-2,1,0,1
89407084094,-2,2,0,1,3,2,0,2
89407090945,1,0,-1,0,-1,-1,-1,-2
89407090945,-1,1,-1,1,-1,-2,-2,-1
89407107318,0,2,1,2,0,1,3,2
89407107318,0,-3,0,1,-4,-2,-2,0
89407108874,0,-4,0,0,-2,-2,1,1
89407108874,-1,-4,-2,-2,-1,-1,1,-2
89407121624,-4,-1,0,-1,-3,1,0,3
89407121624,3,3,3,1,2,0,-4,3
89407128438,-1,-1,0,2,-1,-3,-2,-4
89407128438,2,0,8,2,-3,-1,-1,-3
89407144130,1,-1,-9,-3,0,0,-3,1
89407144130,-4,0,-1,-2,-2,-4,-2,-4
89407150910,-3,-1,-3,-1,-3,-1,0,-3
89407150910,-1,3,5,11,8,4,0,1
89407167301,-1,-1,1,-4,-5,-6,-1,-4
89407167301,-1,-4,1,1,3,0,0,0
89407168853,2,-1,0,1,0,-2,0,-2
89407168853,-2,-1,-4,3,-1,-2,-1,1
89407181596,3,3,2,4,1,0,0,1
89407181596,0,-3,13,1,-1,3,-2,-1
89407188383,-3,-1,-22,-6,-4,2,2,-2
89407188383,-1,0,11,3,-4,-2,1,-4
89407204120,1,-1,-2,1,6,3,-2,0
89407204120,-2,-1,-24,-11,-13,-11,2,-2
89407210948,-2,0,17,7,9,4,-2,2
89407210948,0,-2,-16,-14,-4,3,1,4
89407227273,-1,-1,-10,-5,-4,-6,-2,-1
89407227273,1,-2,-3,-10,-7,-4,1,-3
89407228831,-1,-3,4,2,-2,0,0,0
89407228831,0,-3,-9,-4,3,1,1,0
89407241649,-2,0,12,4,1,0,-1,-1
89407241649,0,1,2,2,1,5,1,1
89407248402,-2,0,-3,-1,-2,-2,-1,-1
89407248402,1,6,26,7,0,-3,-3,-1
89407264147,-2,-13,-23,-7,-1,0,6,-3
89407264147,1,4,-1,-1,-2,-1,-2,-2
89407270934,-1,2,12,8,1,1,-2,-1
89407270934,0,-1,-7,1,3,-3,3,2
89407287258,1,4,18,15,4,7,0,4
89407287258,1,4,23,3,1,2,1,-4
89407288873,-2,-23,-80,-24,-21,-15,-4,-8
89407288873,3,13,78,15,9,16,3,4
89407301628,-5,-3,-66,-38,-15,-16,-3,-5
89407301628,0,9,44,15,6,3,-1,0
89407308381,4,0,-24,-15,8,7,-1,4
89407308381,-4,-5,-56,-12,-27,-19,1,-8
89407324125,3,-1,16,6,6,8,2,5
89407324125,-1,-8,-13,-5,0,2,1,1
89407330914,-2,6,37,7,-3,-7,-2,-2
89407330914,-3,-2,14,12,16,13,0,2
89407347278,-5,3,-24,10,-16,-4,-5,1
89407347278,4,2,-15,2,13,5,2,1
89407348851,1,6,49,10,-4,-8,1,-3
89407348851,-10,-23,-58,-39,-22,-14,-4,-7
89407361591,3,1,58,18,18,10,3,1
89407361591,1,6,32,16,3,3,0,2
89407368435,-3,4,-37,-6,-1,5,0,0
89407368435,1,0,5,-2,3,-1,0,0
89407384148,-1,1,-4,-3,-5,-1,1,-2
89407384148,-6,-10,-31,-12,-12,-10,-1,-6
89407390899,4,-3,25,8,11,3,2,5
89407390899,0,4,-5,0,-6,1,-1,-1
89407407292,-1,-7,-21,1,5,2,-3,0
89407407292,0,6,-1,9,-3,3,1,-2
89407408871,-1,0,5,-6,-2,-1,0,-1
89407408871,3,5,17,7,6,3,0,0
89407420904,2,5,24,6,0,7,-1,2
89407420904,-3,-5,3,-9,-1,-5,0,-4
89407429943,0,0,-6,-1,-3,3,-1,0
89407429943,1,0,4,-2,3,1,1,-2
89407444097,-3,1,16,-2,0,-2,0,-1
89407444097,-1,-7,-13,-2,-3,1,-4,2
89407450910,0,4,17,1,4,2,1,-1
89407450910,2,-1,3,12,5,5,-1,0
89407467399,-1,-1,-6,-4,-2,-2,-1,-2
89407467399,-2,1,2,3,4,0,-3,1
89407468899,1,-3,4,9,8,4,1,1
89407468899,1,0,7,-1,-2,-2,0,0
89407489244,-2,-1,-24,-5,-12,-7,0,-2
89407489244,2,1,-1,-2,2,-1,0,-1
89407489966,0,0,8,12,4,4,-1,2
89407489966,-2,-6,-8,-4,-3,-2,-1,-2
89407504972,2,-4,4,0,0,0,0,2
89407504972,1,1,4,2,0,0,1,-2
89407511134,-4,-2,-6,-1,-4,-1,0,-4
89407511134,-2,2,-15,-8,-3,-3,1,-1
89407526830,-1,2,-2,-3,0,-2,-1,-2
89407526830,3,2,12,8,5,1,1,0
89407527405,-3,-3,-23,-9,-11,-5,-2,-3
89407527405,3,-1,5,1,2,0,-1,0
89407549281,2,2,7,-4,-1,-3,1,-2
89407549281,-1,-5,-5,-5,0,-1,-1,1
89407549950,1,3,3,6,-1,-4,-2,-5
89407549950,1,2,3,2,1,0,-2,1
89407564986,0,0,2,0,-5,-2,-2,-1
89407564986,-4,-7,-12,-9,-7,-1,0,-2
89407571096,-1,1,-1,-1,8,1,3,1
89407571096,-6,-12,-34,-8,-4,-4,-1,0
