timestamp,x,y,z
336682070842,1,0.125,-0.5
336682094418,1.5,-0.3125,-0.9375
336682123337,-1.75,-1.5,-0.5
336682131948,-0.375,-1.125,-1.3125
336682153266,-0.9375,-0.875,-2.0625
336682183892,-0.0625,0.375,-1.6875
336682231004,-0.625,-0.3125,-0.5
336682231781,-0.4375,0.125,-0.3125
336682238306,0.1875,1.0625,-0.6875
336682252691,0.1875,0.9375,-0.125
336682274015,0,0.625,0.5625
336682288301,-0.0625,0.375,0.3125
336682341365,-0.125,0.125,-0.6875
336682342114,-0.5625,0.5,-1.0625
336682355627,-0.1875,0.375,-0.625
336682372089,-0.125,-0.375,0.0625
336682394549,0.1875,-0.25,0
336682409579,0.875,-0.3125,-0.1875
336682432092,-0.375,0.375,-0.875
336682461303,0.1875,0.8125,-0.9375
336682475648,-0.5,0.5625,-0.1875
336682492153,-0.0625,0.0625,-0.5625
336682514572,0,0.375,-0.3125
336682535665,0,0.5625,-0.4375
336682552106,-0.3125,0.1875,-0.3125
336682574618,-0.5,0,-0.4375
336682588173,-0.375,0.3125,-0.5625
336682611281,-0.1875,0.125,-0.5625
336682633833,-0.0625,0.25,-0.0625
336682648142,0.625,0.125,-0.125
336682679498,0.5,-0.1875,-0.125
336682693858,0.5625,0.0625,-0.3125
336682708200,0.625,0.25,-0.3125
336682731332,0.1875,-0.1875,0
336682753782,0.5,-0.3125,0
336682768132,0.1875,0.125,-0.1875
336682791313,0.125,0.375,-0.3125
336682813767,0,0.1875,-0.375
336682828209,0.0625,-0.125,-0.4375
336682851332,0.6875,0.1875,-0.125
336682873825,0.5,0.625,-0.1875
336682888180,-0.1875,0.4375,-0.25
336682911363,0.5625,0.125,-0.6875
336682933849,0.1875,0.25,-0.875
336682948190,0.25,0.375,-0.5625
336682971377,-0.0625,0.375,-0.0625
336682993855,0.3125,0.5625,-0.1875
336683008131,0.125,0.375,-0.625
336683031305,-0.125,0.1875,-0.6875
336683053798,-0.25,0,-0.3125
336683068151,-0.25,0.25,-0.1875
336683091400,-0.625,0.5625,-0.5625
336683113828,-0.75,0.4375,-1.125
336683128104,-1.4375,0.3125,-1.625
336683151049,-1.9375,0.125,-1.3125
336683173824,-2.625,0.5,-1
336683188161,-1.9375,0.625,-0.75
336683211366,-2.3125,0.5625,-1.125
336683233627,-0.9375,0.5625,-1.3125
336683248138,-0.5,0.4375,-0.9375
336683271257,-0.125,0.3125,-0.1875
336683293825,0.3125,0,0
336683308069,0.9375,0.1875,-0.0625
336683330601,0.5,0.1875,-0.25
336683353572,0.4375,-0.4375,0
336683368160,0.4375,-0.5,0.1875
336683390646,0.6875,-0.4375,0.125
336683413157,0.125,-0.4375,0.0625
336683428133,-0.125,0.1875,-0.0625
336683450641,0.0625,0.0625,-0.0625
336683473183,0.375,-0.125,-0.125
336683488238,0.4375,-0.3125,-0.25
336683510716,-0.3125,0.125,-0.6875
336683533210,-0.25,0.0625,-0.5625
336683548188,-0.4375,-0.125,-0.375
336683570684,-0.1875,-0.4375,-0.3125
336683593208,0,-0.25,-0.1875
336683608234,-0.0625,0.25,-0.3125
336683630637,-0.5,0.375,-0.0625
336683653174,-0.3125,0.4375,-0.0625
336683668199,0.0625,0.0625,-0.0625
336683690686,0.6875,0,-0.125
336683713220,0.4375,0.3125,0.125
336683729627,-0.125,0.3125,0.0625
336683752173,0.0625,0.25,-0.1875
336683773231,0.4375,0.1875,-0.5625
336683788210,0.25,0.1875,-0.5
336683810661,0.375,0.375,-0.0625
336683833203,0.1875,0.3125,0.0625
336683848214,0.25,0,-0.0625
336683870686,0.3125,0.1875,-0.1875
336683893287,0.5625,0.1875,-0.1875
336683908172,-0.1875,0.125,-0.25
336683938839,-0.3125,0.3125,0
336683953188,-0.1875,0.25,0
336683968191,0.125,0.1875,-0.1875
336683990751,0.25,0.125,-0.3125
336684013152,-0.125,0.0625,-0.125
336684028166,0.25,0.4375,0
336684050675,0.3125,0.125,0
336684073200,0.1875,0.125,-0.0625
336684091032,0.125,0.125,0
336684110665,0.125,0.125,0.125
336684133241,1.625,0.0625,0.625
336684165899,2.0625,-0.1875,1
336684170723,1.9375,0.25,0.8125
336684193274,1.0625,0.0625,0.0625
336684211164,0.5625,-0.3125,-0.375
336684230711,0.375,-0.6875,0.0625
336684253170,0.1875,-1.0625,0.4375
336684276378,0.125,-0.625,0.6875
336684290714,0.1875,-0.375,0.25
336684313220,-0.1875,-0.125,-0.125
336684329644,-0.25,-0.125,-0.125
336684350759,-0.3125,0,-0.125
336684373242,0.25,-0.125,-0.25
336684389658,0.4375,-0.25,0.125
336684410744,0.5,-0.625,0.375
336684433180,0.5,-0.75,0.375
336684455736,0.75,-0.75,0.0625
336684470665,0.5625,-0.625,-0.0625
336684493294,0.125,-0.3125,0.0625
336684509614,0.3125,-0.375,0.125
336684532199,0.25,-0.5625,0.3125
336684553225,0.625,-0.375,0.3125
336684569756,0.625,-0.3125,0.125
336684590729,0.625,-0.125,-0.1875
336684613185,0,-0.5,-0.25
336684629636,-0.375,-0.1875,-0.3125
336684650766,0.0625,0.125,-0.125
336684673260,0.4375,0.25,-0.125
336684689622,0.3125,0.0625,-0.0625
336684710701,0.125,-0.125,-0.1875
336684733175,0,0.0625,-0.375
336684749699,-0.1875,-0.0625,-0.3125
336684770717,-0.1875,-0.375,-0.1875
336684793229,0,-0.375,-0.1875
336684809703,0.1875,-0.5,-0.1875
336684830716,0.0625,-0.3125,0
336684853325,-0.1875,-0.375,-0.375
336684869677,-0.0625,0,-0.3125
336684890753,0.0625,-0.1875,-0.6875
336684913265,-0.125,-0.1875,-0.4375
336684929570,-0.125,-0.25,-0.375
336684950778,-0.25,0.125,-0.3125
336684973242,0.25,0,-0.4375
336684991104,0.25,0.0625,-0.4375
336685010750,-0.1875,0,-0.5
336685033215,-0.25,0.125,-0.375
336685049657,-0.0625,-0.125,-0.0625
336685070827,0.375,-0.125,0.125
336685093207,0.375,-0.3125,0.0625
336685115757,0.25,-0.125,-0.125
336685132182,0.5625,-0.25,-0.4375
336685153264,0.125,-0.1875,-0.375
336685169714,0.3125,-0.1875,-0.1875
336685192212,0.4375,0.0625,0
336685213237,0.5625,0,-0.3125
336685235782,0.125,0.25,-0.5
336685252215,0.375,0,-0.4375
336685273252,-0.125,0,-0.3125
336685291103,0,0.125,-0.1875
336685312246,0.4375,-0.125,0
336685333249,0.1875,0.1875,0
336685349714,0.25,0.0625,-0.25
336685378275,0.0625,0,-0.25
336685394729,-0.0625,0.125,-0.1875
336685409651,0.125,0.1875,0.0625
336685438281,0.1875,0.25,0
336685453187,0.5,-0.0625,-0.25
336685469713,0.3125,0.0625,-0.375
336685492205,-0.1875,0.375,-0.125
336685513320,-0.375,0.1875,-0.125
336685529717,0,0.1875,-0.4375
336685552274,0.375,0.1875,-0.5
336685573294,0.4375,0.75,-0.0625
336685589689,0.5625,0.5,0.1875
336685612250,0.4375,0.0625,0.5
336685633277,1.8125,-0.5625,1.1875
336685649713,2.875,-0.875,2.125
336685673630,3.5625,-1.0625,2.1875
336685693928,3.1875,-0.8125,1.625
336685710353,3.625,-0.5,0.9375
336685731450,2.75,-0.0625,0.1875
336685753716,1.6875,-0.0625,-0.4375
336685768920,0.375,0.8125,-0.625
336685791393,0.625,1.1875,-0.8125
336685813917,-0.5,0.9375,-0.75
336685828947,-1,1.1875,-0.875
336685851483,-0.4375,1.1875,-1
336685873754,-0.875,1.5,-1.25
336685888947,-0.6875,2.5625,-2.125
336685911427,-1,4,-3.1875
336685933926,-2.3125,6.8125,-5.75
336685948951,-3.625,8.6875,-10.4375
336685971432,-6.625,11.0625,-14.6875
336685993740,-7.625,15.125,-19.6875
336686010309,-7.6875,17.9375,-26.25
336686031380,-8.875,19.3125,-33.25
336686053992,-8.75,19.5625,-41.375
336686068924,-7.875,17.8125,-49.3125
336686091236,-4.6875,16.1875,-57.25
336686113937,-3.0625,14.6875,-64.75
336686128899,-4.875,10.5,-69.6875
336686151450,-5.5625,9.5625,-72.125
336686173784,-3.3125,10.0625,-73.1875
336686188890,0.625,10.8125,-73.1875
336686211380,1.5,9.5,-72.6875
336686233977,1.5625,7.5625,-71.1875
336686248889,2.5625,7.8125,-70.125
336686271424,5.375,8.4375,-70.125
336686293873,5.8125,8.625,-69.625
336686310374,4.1875,9,-69.3125
336686331558,2.5,10.875,-68.875
336686353958,1.5,13.1875,-69.1875
336686370430,0.625,15.75,-69
336686391433,-2.3125,18.875,-67.6875
336686413998,-4.9375,21.8125,-65.125
336686430368,-5.75,25,-61.25
336686451475,-6.0625,30.5,-57.125
336686473987,-3.6875,33.875,-51.875
336686490422,-2.375,35.9375,-45.8125
336686511507,-2.5,39.9375,-38
336686534021,1.8125,45.625,-31.75
336686550411,4.9375,53.0625,-27.125
336686571431,6.0625,59.5625,-21.25
336686601434,7.6875,65.9375,-15.5
336686610341,4.5,77.1875,-10.5625
336686631394,6,89.0625,-5.1875
336686655352,10.1875,97.1875,0.75
336686670415,9.75,103.812,8
336686691487,6.25,108.625,16.375
336686713989,9.5,113.438,24.875
336686730386,12.1875,115.312,29.375
336686751506,7.25,115.5,35.6875
336686773710,6.3125,112.438,42.9375
336686790384,7.5,108.562,46.9375
336686811537,5.6875,103.188,49.5
336686834012,3.625,96.25,54.6875
336686850363,4.75,88.8125,61.3125
336686871432,0.375,82.3125,65.5
336686893990,-3.9375,71.6875,68.25
336686910385,-7.375,60.4375,71.375
336686931502,-10.5625,54.3125,72.5
336686954001,-10.375,49,71.125
336686970449,-12.6875,41.25,70.5
336686991448,-17.4375,33.4375,69.4375
336687013986,-18.9375,28.3125,68.875
336687029719,-19.75,22.625,67.4375
336687051476,-22.4375,18,64.875
336687074013,-24,13.0625,65.3125
336687089723,-24,6.5625,65.125
336687111405,-27.5625,2.5,64.625
336687133760,-29.375,-3.375,65.0625
336687156430,-30.75,-9.625,64.5625
336687171455,-31.3125,-15.125,62.6875
336687201462,-29.875,-21.5,62.625
336687223939,-30.375,-27.0625,62.9375
336687232907,-32.1875,-33.625,64.1875
336687253700,-31.875,-38.5,64.75
336687271205,-31.5,-43.8125,65.4375
336687292873,-29.3125,-50.25,64.625
336687313962,-27.9375,-52.3125,61.5625
336687329750,-28.5,-54.6875,59.875
336687352860,-28.75,-57.5,58.4375
336687373722,-27.8125,-59.375,54.25
336687389710,-29.25,-61.625,51.375
336687412902,-30.6875,-67.4375,49.4375
336687433974,-30.125,-71.125,47.0625
336687449770,-29.625,-71.75,42.6875
336687472880,-27.5625,-74.75,37.5
336687493961,-26.6875,-79.875,33.5
336687516435,-25.5625,-81.3125,29.25
336687532858,-24.9375,-78.375,24.5625
336687553985,-22,-77.0625,21
336687569735,-22.625,-75.9375,18.1875
336687592909,-24.3125,-73.1875,12.75
336687613949,-25.9375,-70.5625,7.9375
336687636901,-21.5,-68.125,3.6875
336687652922,-17.6875,-64.75,0.625
336687673957,-18.4375,-61.5625,-4.25
336687689702,-16.75,-57.875,-8.8125
336687712859,-10.25,-54.125,-12.75
336687733975,-5,-52.625,-15.8125
336687756487,-5.625,-49.5625,-20.9375
336687772907,-6.4375,-42.8125,-27.375
336687793972,-0.6875,-36.1875,-32.9375
336687809748,4.5,-30.125,-38
336687832923,3.375,-26.4375,-44.6875
336687854002,2.1875,-20.375,-51
336687869759,3,-13.9375,-55.9375
336687892906,5.8125,-9.4375,-59.9375
336687913984,6.5,-8.5,-62.3125
336687929729,5.8125,-8.25,-65.75
336687952880,4.8125,-7.875,-69.25
336687974009,6.5625,-7.8125,-73.375
336687989756,7.4375,-8.125,-76.375
336688012258,9.1875,-10.75,-78.125
336688033750,9.3125,-12.1875,-77.3125
336688049782,7.9375,-13.6875,-77.625
336688072264,6,-13.6875,-79.375
336688094016,2.0625,-10.75,-80.75
336688109825,4,-9.375,-80.375
336688132298,1.5,-9.4375,-78.25
336688155463,-5.875,-8,-78.3125
336688169774,-7.5,-2.75,-78.75
336688192258,-6.0625,-0.125,-75.4375
336688215487,-6.3125,0.0625,-72.25
336688229782,-12.5,1.4375,-69.75
336688266473,-15.1875,4.6875,-67.875
336688275559,-14.6875,8.75,-63.6875
336688296634,-13.8125,9,-57.375
336688312304,-14.3125,7.625,-51.3125
336688335499,-18.0625,8.1875,-47.1875
336688356530,-18,8.875,-42.125
336688372333,-14.125,8.6875,-35.75
336688395562,-12,6.9375,-29.125
336688416622,-13.9375,4.5625,-22.625
336688432310,-11.0625,2.0625,-15.8125
336688456224,-7.125,-0.125,-8.5
336688476572,-6,-2.4375,-1.1875
336688492324,-7.375,-5.6875,6.6875
336688515563,-6.625,-9.1875,13.9375
336688536307,-6.9375,-9.5625,20.8125
336688552327,-7.875,-8.9375,27.75
336688575556,-8.875,-7.8125,35.4375
336688596657,-10.3125,-7.4375,42.375
336688612342,-11.875,-7.4375,47.5625
336688635449,-13.1875,-6.625,51.4375
336688656487,-14.25,-4.9375,54.4375
336688672395,-17,-6.4375,58.25
336688695562,-19.5625,-10.125,62.5
336688716610,-21.1875,-12.3125,67.5
336688732343,-22.25,-14.1875,73
336688755552,-18.8125,-15.375,78.1875
336688776538,-15.25,-17.8125,82.5625
336688792298,-12.4375,-21.25,87.125
336688805936,-10,-24.75,92.125
336688828335,-9.5,-26.75,95.1875
336688851608,-12.75,-26.8125,96.9375
336688865884,-12.1875,-28.5625,97.3125
336688888431,-10.1875,-30.0625,96.5625
336688911600,-7.875,-29.9375,95.0625
336688925939,-6.5625,-28.25,92.625
336688948409,-5.375,-27.9375,88.1875
336688971612,-6.3125,-28,83.375
336688985914,-5.1875,-27.25,77.0625
336689008409,-1.6875,-25,68.6875
336689031619,-1.25,-22.8125,59.5625
336689045936,-1,-22.75,47.875
336689068427,-1.125,-20.3125,35.375
336689091603,-1.75,-16.9375,24.0625
336689105954,-3.1875,-12.0625,15.3125
336689128416,-3.0625,-7.6875,8.5625
336689151635,-3.0625,-3.9375,1.5
336689165980,-5.6875,-1.6875,-3.4375
336689188428,-5.8125,-1.125,-6.375
336689211649,-6.875,-0.375,-5.625
336689225946,-7.0625,-0.75,-4.25
336689248400,-4.3125,-1.625,-3.625
336689271320,-2.6875,-2.875,-2.5
336689285966,-2.5,-3.8125,-2.125
336689308407,-3.4375,-1.875,-1.125
336689331572,-2.5625,1.25,-1.8125
336689345887,-3.8125,5,-6.375
336689368407,-5.875,5.5,-7.25
336689391619,-7.125,4.75,-3.9375
336689405939,-1.9375,6.625,-4.4375
336689428447,-6.0625,6.0625,-5.1875
336689451623,-4.6875,1.4375,-1.5625
336689465962,-1.75,-0.75,1.25
336689488456,-0.25,1.3125,0.125
336689511652,-2.625,2.5625,-1.4375
336689525967,-3.625,1.1875,-1.9375
336689548476,-0.75,-0.5625,-0.625
336689571619,-0.375,0.3125,-1.75
336689585975,-2.0625,2.625,-2.3125
336689608332,-1.375,4.9375,-4.125
336689631623,-4.25,5,-4.0625
336689645951,-3.6875,3.875,-3.5
336689668474,-1,5.8125,-6.1875
336689691625,-4.0625,6.9375,-6.5625
336689705908,-1.5625,0.6875,0
336689728457,2.625,-1.8125,2.0625
336689751616,1,-2.5625,-1
336689765904,1.1875,0.125,-4.0625
336689788381,-2.5625,2.5625,-3.125
336689811627,-2.375,1,0.0625
336689825951,-0.5,-1,0.8125
336689848492,1.1875,-0.0625,-1.8125
336689871599,0.75,0.9375,-3.4375
336689885955,0.6875,0,0.3125
336689908414,1.75,-2.1875,3.1875
336689931709,2.1875,-2.3125,2.5
336689945992,5.375,-2,-0.8125
336689968503,2,0.1875,-4.8125
336689991560,-3.25,0.75,-0.6875
336690005910,-0.3125,0.625,0.25
336690028456,-0.9375,0.9375,-3.125
336690051024,-3.6875,2,-6.125
336690065984,-3.5625,1.6875,-3.75
336690088405,-2.3125,1.8125,-1.3125
336690104822,-0.375,0.5,-0.375
336690125982,0.0625,-2.0625,-1.875
336690148466,0.9375,-3.0625,-2.25
336690164928,1.3125,-1.9375,-1.1875
336690185910,1.375,0.125,0.1875
336690208488,2.125,0.5625,0.4375
336690224917,1.125,-1.0625,-0.5625
336690245949,0,-1.0625,-1.125
336690268543,-0.25,-0.8125,0.375
336690284908,0.4375,0.25,1.375
336690305980,0.0625,0.125,0.4375
336690328416,0.375,-0.125,0.125
336690350997,0.9375,-0.125,0.125
336690365952,1.25,0.625,0.9375
336690388464,1.375,-0.125,0.4375
336690404948,-0.8125,0.0625,0.5625
336690425993,0.1875,-0.125,-0.375
336690448539,-0.375,-0.125,-0.3125
336690470933,-0.375,0.1875,-0.25
336690485957,0.5,0.5625,-0.25
336690508426,0.9375,1,-0.5625
336690524843,-0.125,0.4375,-0.6875
336690546059,-0.5,-0.6875,-0.1875
336690568484,0.3125,-0.6875,0
336690584966,0.375,-0.5625,0.125
336690606169,0.5625,-0.625,1.125
336690628426,0.4375,-0.375,1.1875
336690644930,0.4375,-0.1875,1.1875
336690665907,0.9375,0.375,0.5
336690688539,0.5625,0.875,-0.1875
336690704903,0.5625,0.6875,-0.1875
336690726087,0,0.5,0.0625
336690748520,1.0625,0.3125,0.3125
336690764887,0.5,-0.0625,0.375
336690786028,1,-0.125,0.6875
336690808501,2.25,-0.0625,1.1875
336690824898,2.4375,-0.4375,2
336690847398,2.0625,-1.9375,1.375
336690868426,1.4375,-3.1875,3.6875
336690884942,2.875,-3.375,4.0625
336690907425,2.25,-3.5,4.3125
336690929993,1.375,-4.1875,4.1875
336690944869,4.625,-1.75,2.5
336690967402,1.125,-2.375,1.5625
336690988468,-0.375,-3.3125,2.9375
336691004955,0.3125,-1.1875,4.625
336691027510,0.3125,-1.375,3.875
336691048420,0.5625,0.0625,1.625
336691064876,0.8125,0.9375,-0.5
336691087354,-2.0625,-1,-2.0625
336691108520,-3,-3.4375,-0.125
336691124906,-0.8125,-5.0625,1.375
336691147399,-1.1875,-2.625,0.625
336691168481,-0.5,0.375,-0.5625
336691184901,0.0625,2.6875,-1.6875
336691207358,-0.375,1.25,-2.375
336691228576,-0.875,0.125,-1.375
336691244908,0.875,0.875,-1
336691267459,1.5625,0.875,-0.0625
336691288481,1.375,-0.5,0.5625
336691304912,0.875,-1.875,1.125
336691327476,2.875,-2.125,-0.0625
336691348573,1.3125,-0.5,-1.3125
336691364957,-0.25,-0.4375,-0.5
336691387436,-0.4375,0.25,-1.375
336691408512,-0.9375,1.25,-3.1875
336691424990,-3,0.125,-3.6875
336691447437,-1.6875,-0.0625,-3.4375
336691468461,-2.4375,0,-2
336691484907,-2.25,0.6875,-1.8125
336691507431,-1.75,1.0625,-2
336691528548,-1.25,2.6875,-2.6875
336691544913,-0.8125,0.5625,-1.875
336691567435,-2,-0.875,-0.25
336691588513,-0.3125,0,-0.125
336691604920,-0.75,1,-1.3125
336691627488,-0.9375,2.125,-2.625
336691648401,-2.9375,-0.5,0.375
336691664928,-0.9375,-0.8125,0.6875
336691687485,-1.5,-0.8125,0.125
336691708501,-1.5,-0.8125,-0.625
336691724937,-0.4375,0.5,0.0625
336691747612,0.4375,1.875,0.375
336691769965,-0.0625,1.0625,0.5625
336691786429,1.25,-0.0625,0.1875
336691807459,0.75,0.625,0.125
336691829908,1.125,0.5,-0.0625
336691844959,0.6875,-0.6875,0.75
336691867488,0.375,-1.25,1.75
336691889938,1.125,-0.5625,0.75
336691904129,0.9375,0.1875,-1.125
336691926715,1,0.3125,-1.1875
336691949176,-0.4375,-0.875,-0.3125
336691965580,0,-0.0625,0.4375
336691986711,0.375,0.375,-0.3125
336692009231,0.875,0.5625,-1.375
336692025655,0.0625,-0.0625,-2
336692046718,-0.5,-0.125,-1.1875
336692069190,-0.5,0,0.0625
336692085610,-0.25,0.0625,-0.1875
336692106686,0.1875,0.375,-0.875
336692129198,0.6875,-0.125,-1.0625
336692145616,1.0625,-0.25,0.3125
336692166737,0.75,-0.375,1
336692189189,-0.1875,-0.3125,0.75
336692205644,0,0.0625,0
336692226739,0.875,-0.625,-0.5625
336692249244,-0.125,-0.375,0.3125
336692265614,0.4375,-0.5625,0.9375
336692286393,0.375,0.125,0.375
336692309275,0.375,0.4375,-0.3125
336692325638,0,0.3125,0.6875
336692346710,0.125,-0.5,1.125
336692369203,0.375,0.1875,0.5625
336692385638,0.9375,0.0625,0.8125
336692406769,0.8125,0.0625,0.9375
336692429224,0.375,-0.0625,1.6875
336692445660,2.1875,-0.625,1.5625
336692466630,2,0.1875,0.1875
336692489166,0.875,0.6875,-0.375
336692505631,0.25,0.9375,-0.375
336692526657,0,0.4375,0.75
336692549244,0.375,-0.75,1.125
336692565648,0.5,0,0.125
336692586751,1.0625,1.125,-0.9375
336692610632,0.5625,1,-1
336692625676,0.25,0.3125,-0.0625
336692646736,0.625,-0.1875,-0.125
336692669194,0.625,0.0625,-0.375
336692685656,0.625,0.5,-0.875
336692706713,0.1875,0.3125,0.0625
336692729204,0.625,-0.5,0.25
336692744907,0.5,-0.3125,-0.0625
336692766700,1.1875,-0.0625,-0.6875
336692789264,-0.375,0.9375,-0.8125
336692805045,-0.3125,-0.125,0.125
336692826709,-0.5625,-1.1875,0.25
336692849267,-0.625,0.125,0.1875
336692865006,0.625,0.75,-0.25
336692886762,0.4375,0.0625,-0.625
336692909257,0.25,-0.875,-0.6875
336692924998,0.375,-0.375,0.125
336692948192,0.625,-0.75,0.4375
336692969246,0.0625,-0.125,0.4375
336692984956,0.4375,-0.125,0
336693008127,0.75,-0.375,-0.125
336693029276,1.375,-0.125,-0.25
336693045001,1.375,0.0625,-0.5
336693068145,0,0.625,0.0625
336693089270,0.125,0.625,0.5
336693104930,-1.125,-0.6875,0.4375
336693128106,-0.3125,-0.5,-0.5625
336693149380,0.5625,0.875,-0.375
336693164992,0.75,1.25,-0.625
336693188149,-0.5,0.5625,-0.375
336693209192,0.8125,-0.3125,-0.4375
336693224955,0.4375,0.1875,-0.1875
336693248108,0.75,0.125,0
336693269222,0.4375,0.125,0.0625
336693285168,0.3125,-0.375,0.0625
336693308145,0.25,-0.25,-0.0625
336693329211,0.875,-0.0625,0.0625
336693345015,0.4375,-0.3125,-0.0625
336693368223,-0.25,0,0.0625
336693389240,0.25,-0.0625,-0.125
336693405116,-0.1875,0.375,-0.3125
336693428159,-0.1875,0.4375,-0.375
336693449269,-0.4375,1.3125,-0.4375
336693465035,-0.5,1,-0.3125
336693488183,0,0.5625,0
336693509251,-0.1875,0.6875,1
336693525006,0.4375,0.25,0.4375
336693548209,-0.625,0.6875,-0.125
336693569286,-0.4375,0.875,-0.75
336693585029,-0.375,0.4375,-0.5
336693608131,-0.8125,0.125,-0.0625
336693629214,-1.375,-0.3125,0.4375
336693644959,-0.5,-0.375,0.625
336693667539,-0.25,-0.125,0.25
336693689263,-0.3125,0.1875,-0.4375
336693705054,-0.0625,-0.5,-0.25
336693727573,0.125,-0.4375,-0.25
336693749248,0.3125,0.125,0.1875
336693765072,0.875,-0.25,-0.25
336693787573,0.6875,-0.5625,-0.75
336693809288,0.0625,-1.1875,-0.25
336693825052,0.125,0.3125,-0.5625
336693847577,0.5,0.75,-0.625
336693870703,0.25,0.1875,-0.625
336693885019,0.375,-0.3125,-0.1875
336693907556,0.8125,-0.5625,0.1875
336693930672,0.6875,-0.3125,0.1875
336693945108,0.125,-0.3125,0.0625
336693967552,-0.0625,-0.75,0.5625
336693990707,0.3125,-0.1875,0.3125
336694005033,1.0625,-0.125,0.75
336694027552,1.25,-0.0625,0.1875
336694050714,-0.5625,-0.0625,-0.125
336694065023,-2.6875,-0.8125,1.5
336694087513,-1,-2.125,1.125
336694110639,-0.625,0.5625,0.625
336694125001,1,1.5625,-0.0625
336694148015,1.125,1.75,-1.5625
336694170699,2.375,1.25,-2.25
336694184996,0.0625,-0.8125,-1.125
336694207543,0.6875,-2.9375,0.4375
336694230686,0.375,-0.3125,1.9375
336694245038,0.25,-0.5625,1.25
336694267534,-0.375,-1.25,-0.0625
336694290742,-0.75,-0.3125,0
336694305000,0,0.6875,0.5625
336694327508,-0.25,1.0625,0
336694350654,-0.125,0.25,-0.6875
336694371775,-0.1875,-0.25,-0.625
336694390248,-0.0625,-1.5,-0.3125
336694410691,-0.3125,-1.0625,0.3125
336694431860,0.125,-1.375,0.625
336694447506,0,0.0625,0.125
336694470678,0.3125,-0.125,0
336694491724,0.5,0,-0.5
336694507533,-0.0625,-0.4375,-0.4375
336694530680,0.3125,-0.5,-0.125
336694551942,0.25,-0.9375,0.1875
336694567908,0.5625,-0.875,-0.25
336694590671,-0.125,-0.6875,-0.125
336694611752,0.3125,-1.25,-0.25
336694627500,0,0.0625,0.3125
336694650041,0.75,-0.1875,0
336694671732,0.4375,-0.125,-0.3125
336694687599,0.4375,-0.625,-0.375
336694710050,0.8125,-0.6875,-0.3125
336694731756,0.375,-0.5,-0.0625
336694747590,0.4375,-0.625,-0.0625
336694770023,0,-0.1875,-0.5
336694793247,0,-0.25,-0.3125
336694807576,0.625,0,-0.1875
336694830038,0.4375,0,-0.125
336694853148,0.25,-0.1875,-0.25
336694867649,0.5625,-0.25,-0.3125
336694891138,0.125,-0.0625,-0.25
336694913279,-0.0625,0.25,-0.1875
336694927546,0,0.25,-0.125
336694950025,0.25,0.5625,0.0625
336694973185,0.5625,0.1875,-0.0625
336694987548,0.1875,-0.0625,-0.125
336695010110,0,0.3125,-0.25
336695023616,0.125,0.375,-0.1875
336695046862,-0.25,0.125,-0.25
336695061111,-0.3125,0.125,-0.25
336695083560,0.25,0.25,-0.25
336695106740,0.1875,0.25,-0.25
336695121129,0.25,0.3125,-0.1875
336695143630,-0.125,0.125,-0.3125
336695166779,-0.25,0.25,0
336695181066,-0.125,0.25,-0.125
336695203602,-0.1875,0.375,0
336695226816,-0.1875,0.375,-0.125
336695241116,-0.3125,0.1875,-0.1875
336695263666,-0.0625,-0.125,-0.0625
336695286825,0,0.1875,-0.125
336695301136,-0.125,0.1875,0.0625
336695323623,0.0625,0.1875,0
336695346803,-0.1875,-0.0625,-0.0625
336695361129,-0.0625,-0.3125,0.125
336695383617,0.1875,-0.3125,0.1875
336695406831,0.6875,-0.1875,0.4375
336695421078,0.4375,-0.4375,0.3125
336695443642,0.0625,-0.875,0.1875
336695466784,0.375,-1.3125,0.125
336695481131,0.5,-0.6875,0.1875
336695503660,0.625,0.1875,0.25
336695526860,0.5,0.1875,-0.0625
336695541169,0.3125,-0.75,-0.5625
336695563658,0.375,-0.5,-0.25
336695587054,0.5625,0.0625,-0.0625
336695609325,0.25,0.1875,0.125
336695623604,0.125,0.1875,-0.25
336695648757,0,0.125,-0.25
336695661133,0.375,-0.1875,-0.1875
336695684408,0.4375,-0.125,-0.1875
336695714502,-0.25,0.5625,0.125
336695722820,-0.25,0.6875,-0.125
336695746586,0,0.5,-0.0625
336695767846,0.75,-0.375,-0.125
336695788972,0.625,-0.6875,-0.125
336695807232,0,-0.125,-0.0625
336695826726,0.1875,0.5625,0.125
336695844340,-0.4375,0.5,-0.1875
336695863637,-0.5,-0.125,-0.375
336695887527,-0.75,0.1875,-0.375
336695905579,-0.375,0.875,0.0625
336695927521,-0.3125,1.125,0
336695947398,-0.3125,0.625,0
336695961268,0,-0.125,-0.0625
336695985271,-0.0625,0.25,-0.1875
336696006151,-0.3125,0.3125,0
336696021156,0,0.3125,0.1875
336696043679,-0.125,0.25,-0.0625
336696066179,-0.25,0.375,-0.0625
336696081127,-0.0625,0.4375,-0.3125
336696103649,0.125,0.625,-0.5
336696126163,-0.0625,0.3125,-0.3125
336696141184,0,-0.1875,-0.1875
336696163697,0.1875,0,-0.25
336696186122,0,0.0625,-0.125
336696201160,0.3125,0.125,-0.1875
336696223653,0.3125,-0.375,0
336696246178,0.4375,0,-0.0625
336696261187,0.8125,-0.25,-0.25
336696283978,0.4375,-0.1875,-0.25
336696306158,0.5,-0.4375,-0.0625
336696321164,0.375,-0.125,0
336696343714,0.6875,-0.375,-0.25
336696366179,0.1875,0.125,-0.375
336696381189,0.75,-0.5625,-0.4375
336696404808,0.25,-0.4375,-0.25
336696426200,0.375,0.0625,-0.125
336696441159,0.1875,0.1875,-0.25
336696463693,0.375,0,-0.5
336696486309,0.375,-0.0625,-0.4375
336696502641,0.3125,-0.0625,0.0625
336696523677,0.75,-0.125,-0.0625
336696546166,0.5,0.3125,-0.1875
336696562620,0.25,0.375,-0.5625
336696583669,0.1875,0.5,-0.4375
336696606211,0.4375,0.375,-0.375
336696622861,0.75,0.0625,0.0625
336696644687,0.5,0.0625,-0.25
336696666179,0.3125,0.125,-0.25
336696682617,0.4375,-0.0625,-0.375
336696703669,-0.25,0.1875,0
336696726315,0.125,0.0625,0.125
336696744650,0.0625,0.3125,-0.1875
336696763894,-0.125,0.1875,-0.3125
336696786212,-0.1875,0.5,-0.3125
336696802647,-0.0625,0,-0.125
336696823708,0.125,0.3125,-0.0625
336696846329,0.1875,0.1875,0
336696868644,0,0.3125,-0.375
336696883681,-0.3125,0.25,-0.25
336696906164,-0.0625,0.125,-0.1875
336696922644,-0.1875,0.25,-0.1875
336696943703,-0.0625,0.0625,0
336696966242,0,0.25,-0.1875
336696982625,0,0.0625,-0.25
336697011899,0.1875,-0.0625,-0.25
336697026242,0.0625,0,-0.0625
336697042632,0,0,0
336697063726,0.125,0.25,-0.125
336697086205,0.25,0,-0.25
336697102656,0.0625,0,-0.4375
336697123686,0.75,-0.375,-0.1875
336697146263,0.6875,0,-0.0625
336697162613,0.5625,-0.125,-0.25
336697183700,0.5,-0.1875,-0.4375
336697206151,0.4375,-0.125,-0.5625
336697222659,0.5,-0.125,-0.25
336697243666,0.375,-0.0625,-0.0625
336697266241,0.25,0,-0.125
336697282629,0.1875,0,-0.125
336697303681,-0.125,0.125,-0.125
336697326326,-0.375,0.0625,-0.25
336697342666,-0.4375,-0.0625,0.0625
336697363690,-0.1875,0.0625,0.0625
336697386281,-0.0625,-0.125,0.125
336697402657,0.125,-0.4375,0.0625
336697423699,0.5,-0.5,0.125
336697446231,0.1875,0.0625,0.125
336697462623,0.3125,0.1875,-0.1875
336697485114,0.3125,0.1875,-0.25
336697506193,0.5,0,-0.375
336697522635,0.4375,-0.125,-0.1875
336697545150,0.125,-0.5,0
336697566196,0.5,-0.375,0
336697582657,0.3125,-0.4375,0
336697605224,0.25,-0.4375,-0.125
336697626249,0.4375,-1,-0.125
336697642663,0.125,-0.5,0.1875
336697665148,0.3125,-0.3125,0.25
336697686218,0.5,-0.125,0.125
336697702683,0.125,0.0625,0
336697725204,0.125,-0.4375,0.0625
336697746152,0.25,-0.6875,-0.1875
336697762701,0.375,-0.625,0
336697785127,0.375,-0.25,-0.125
336697806210,-0.125,-0.1875,-0.125
336697822649,0.0625,-0.4375,-0.1875
336697845125,0.25,-0.375,0.125
336697869130,0.6875,-0.5625,0.1875
336697882680,0.4375,-0.3125,0
336697905181,-0.0625,-0.5,-0.0625
336697926239,0.125,-0.5625,-0.375
336697942686,0.3125,-0.4375,0.125
336697965190,0.25,-0.3125,0.3125
336697986232,0,-0.1875,-0.0625
336698002706,0.125,-0.1875,-0.3125
336698025156,0.375,-0.4375,-0.25
336698046219,0.375,-0.3125,0
336698062661,0.1875,0.0625,0.125
336698085192,0.1875,0.0625,0
336698106233,0.1875,-0.25,-0.3125
336698121906,0.0625,-0.25,-0.1875
336698144366,0.4375,-0.3125,0.0625
336698166896,-0.0625,0,0.125
336698181886,0.25,0.0625,0
336698204365,0,-0.125,-0.3125
336698226935,0.0625,0.1875,-0.3125
336698241898,0.125,-0.0625,0.1875
336698271686,0.4375,-0.125,0.125
336698287388,0.25,0.0625,-0.3125
336698302335,0.3125,0.125,-0.3125
336698324413,-0.25,0.75,-0.25
336698346895,0.0625,0.25,0.1875
336698361946,0.4375,0.5,0
336698384392,0.625,0.3125,-0.1875
336698406939,0.1875,0.0625,-0.125
336698421876,-0.125,0.1875,-0.25
336698444479,0.1875,-0.125,0.0625
336698466948,0.125,0.1875,-0.25
336698481893,-0.0625,0,-0.25
336698504431,-0.25,0.375,-0.25
336698527272,-0.125,0.3125,-0.1875
336698541947,0.1875,0.3125,-0.125
336698564475,0.6875,0.125,-0.3125
336698586924,0.25,0.1875,-0.1875
336698603351,0,0.1875,-0.3125
336698624398,0.0625,0.0625,-0.25
336698646891,0.1875,0.125,-0.0625
336698663304,-0.125,0.125,0.125
336698684430,0.0625,0.3125,-0.0625
336698706917,-0.0625,0.375,-0.3125
336698723386,-0.0625,0.0625,-0.375
336698744439,-0.0625,-0.125,-0.0625
336698760284,0.125,-0.1875,0.25
336698783405,0.125,0.125,-0.0625
336698804464,-0.125,0.0625,-0.25
336698820213,0.125,-0.25,-0.4375
336698843363,0.3125,-0.4375,-0.0625
336698865844,0.4375,-0.25,0.1875
336698880492,0.5625,0,-0.0625
336698903390,0.375,-0.0625,-0.3125
336698924459,0.0625,0,-0.375
336698940195,0.4375,0,-0.4375
336698963413,0.4375,-0.0625,-0.125
336698984437,0.3125,-0.125,-0.0625
336699000181,0.1875,0.0625,-0.0625
336699023400,0.25,0.1875,-0.4375
336699044470,0.25,-0.125,-0.375
336699060218,0.4375,-0.1875,-0.25
336699083363,0.3125,0.0625,0.125
336699104439,0.3125,0,0
336699120185,0.25,-0.3125,-0.3125
336699143328,0.3125,0.1875,-0.4375
336699164472,0.0625,0.25,-0.25
336699180227,0.3125,0.5,-0.25
336699203399,0.375,0.3125,-0.3125
336699224516,0.375,0.125,-0.25
336699240207,0.3125,-0.125,0.125
336699263414,0.3125,-0.0625,0.125
336699284451,0.3125,0.0625,0.0625
336699300265,-0.125,0.125,0
336699323420,-0.3125,0.25,-0.4375
336699344520,-0.125,0.25,-0.375
336699360213,-0.0625,0.125,-0.1875
336699382706,0.3125,-0.0625,-0.0625
336699404455,0.375,0.3125,-0.25
336699420205,0.0625,0.1875,-0.125
336699442691,-0.1875,0.0625,-0.0625
336699464411,0.1875,0.0625,-0.25
336699480212,-0.0625,0.0625,0.125
336699502764,-0.125,0.0625,0.0625
336699526351,-0.125,0.25,-0.125
336699540255,0.375,0,-0.1875
336699562733,0.5625,-0.3125,-0.0625
336699586097,0.1875,-0.1875,0.25
336699600300,0,0.0625,0.1875
336699622714,0.0625,0.25,-0.25
336699645935,-0.125,0.0625,-0.375
336699660457,0.375,-0.1875,-0.375
336699682874,0.5,-0.0625,-0.125
336699705917,0.5,-0.125,-0.0625
336699720225,0.4375,0.125,-0.1875
336699743621,0.125,0,-0.3125
336699772463,0.125,-0.125,-0.3125
336699780284,0.1875,-0.25,-0.0625
336699802771,0.375,-0.125,0
336699825943,0.75,0,-0.125
336699840322,0.3125,-0.125,-0.125
336699862751,0.1875,-0.125,-0.3125
336699885886,0.25,0,-0.375
336699900309,0.125,0.0625,0
336699922806,0.1875,0.125,-0.125
336699945969,0.375,0,-0.1875
336699960273,0.375,0.0625,-0.25
336699982800,0.125,0.0625,-0.0625
336700005871,0.0625,0.4375,-0.125
336700020302,0.1875,0.375,-0.0625
336700042848,0.5625,0.375,-0.3125
336700066019,0.5625,-0.1875,-0.125
336700087034,0.75,0.3125,-0.3125
336700102783,-0.0625,0.25,0.0625
336700125916,-6.625,-2,1.25
336700147014,-11.0625,-0.75,1.5625
336700162853,-6.8125,2.6875,2.125
336700185960,-0.1875,8.75,1.0625
336700207025,0.125,15.9375,-1.4375
336700222812,-2.0625,20.75,-2.4375
336700245978,-1.3125,26.0625,-7.4375
336700267025,2.5,35.6875,-14.8125
336700282776,10.25,48.6875,-30.375
336700305261,8.4375,52.75,-39.9375
336700326947,5,58.4375,-53.625
336700342833,5.125,58.3125,-62.8125
336700365261,1.6875,55.25,-73.9375
336700387089,3.875,49.75,-84.4375
336700402836,6.9375,39.8125,-95.625
336700425257,5.75,30.5,-105
336700447061,2.3125,21.9375,-111.438
336700462806,-2,13.5,-116.688
336700485316,-8.25,4.1875,-119.688
336700508463,-16,-1.8125,-120.75
336700530928,-15.6875,-6.1875,-121.188
336700545292,-8.5,-11.6875,-121.188
336700568501,-11.625,-17.125,-119.938
336700582758,-16.125,-20.8125,-118
336700605250,-14.5,-22.875,-115.125
336700628405,-12.875,-22.5625,-112.375
336700649593,-11.75,-21.875,-109.812
336700665280,-12.25,-20.125,-107.188
336700688499,-14.625,-18.1875,-103.188
336700709564,-16.25,-14,-99.5625
336700725253,-14.375,-10,-96.625
336700748471,-12.6875,-6.6875,-93.6875
336700769553,-9.125,-1.125,-85.6875
336700785284,-12.1875,2.5625,-68.5
336700808499,-32.9375,16.75,-57.375
336700829552,-18.8125,26.9375,-55
336700845313,-8.6875,32.1875,-55.125
336700868403,-14.3125,42.5,-54.625
336700889463,-22.75,51.75,-54.125
336700905299,-19.0625,63.75,-54.5625
336700928548,-14.375,72.125,-50.125
336700949555,-14.5625,79.5,-44.3125
336700965283,-12.5625,87.6875,-36.75
336700988584,-11.8125,94.875,-27.0625
336701010957,-15.5625,99.875,-14.3125
336701025295,-14.25,105.688,1.4375
336701048499,-14.375,113,14.8125
336701069558,-8.6875,117.375,25.125
336701085261,3.875,118.812,40
336701108508,5.6875,118.688,52.4375
336701129548,-1.3125,121.438,61.5625
336701145317,2.3125,124.625,71.1875
336701168518,12.6875,124.188,81.1875
336701196993,14.75,123.438,87.6875
336701205290,8.3125,119.5,91.5625
336701228517,1.3125,111.125,95.3125
336701241508,-2.4375,100.062,98.375
336701264550,-2.125,88,100.375
336701278918,-4.6875,76.5,102.312
336701310206,-9.5,65.0625,101.75
336701324577,-15.0625,55.625,98.75
336701339026,-8.0625,46.6875,101.375
336701361400,-6.125,36,104.625
336701384656,-16.875,27.8125,102.125
336701398854,-25.4375,18.4375,101
336701421356,-18.875,4.3125,105.938
336701444563,-19.625,-7.4375,108.812
336701458868,-22.4375,-14.75,107.25
336701481381,-23.625,-27.375,107.375
336701504560,-24.125,-40.6875,107.375
336701518962,-27.4375,-49,104.75
336701541447,-31.4375,-59.4375,106.25
336701564562,-34.5625,-73.5625,108.875
336701578912,-34.3125,-85.25,111.188
336701601400,-37.5625,-89.25,107.438
336701624641,-30.8125,-89.9375,99.1875
336701648517,-23.3125,-91.4375,91.3125
336701661393,-31.9375,-99.9375,87.3125
336701684545,-45.625,-108.125,86.375
336701698870,-50.6875,-111.062,86.75
336701721451,-47.5625,-111.562,85.375
336701744575,-51.5625,-113.625,82.5625
336701758920,-52.125,-114.562,76.5625
336701781397,-44.6875,-109.438,68.25
336701804540,-45.625,-108.625,60.4375
336701818906,-46.4375,-110.625,54.9375
336701841367,-38,-108.562,49.875
336701864596,-34.3125,-101.375,42.6875
336701878896,-39.5625,-93.8125,35.4375
336701901416,-35.5,-86.0625,25.75
336701924567,-30.75,-78.9375,15.6875
336701938854,-30.875,-68.0625,4.4375
336701961387,-26.1875,-53.8125,-9.5625
336701984567,-19.5,-41,-19.5
336701998917,-33.6875,-30.375,-26.625
336702021425,-47.3125,-20.0625,-32.8125
336702044532,-45,-10.9375,-36.125
336702058907,-39.1875,-4.1875,-38.1875
336702081437,-33.875,-0.625,-38.6875
336702104604,-32.4375,2.9375,-41.4375
336702118941,-28.625,6.5625,-43
336702141379,-32.3125,8.5625,-39.4375
336702164630,-34.6875,9.8125,-33.8125
336702178892,-33.5625,7.75,-23.6875
336702201481,-25.1875,4.9375,-14.25
336702224574,-19.875,2.875,-5.5625
336702238980,-10.375,-0.6875,1.875
336702261476,-9.375,-1.9375,9
336702284688,-7.75,-3.5,18.75
336702298964,-1.25,-5,27.625
336702321451,0.8125,-5,31.875
336702344626,-3.25,-2.5,31.5625
336702358982,-1.625,-0.625,30
336702381477,-0.4375,-0.9375,28.8125
336702403887,-2.4375,-1.625,27.125
336702418954,-4.6875,-2.625,22.375
336702441464,-6.6875,-1.0625,16.5625
336702463881,-7.625,2.25,10.8125
336702478940,-7.875,5.625,8.625
336702501410,-8.5625,6.9375,6.875
336702523911,-5.375,5.6875,5.875
336702538967,-6.3125,4.875,3.375
336702561444,-6.8125,3.6875,0.4375
336702583987,-4.3125,-0.75,0.75
336702599005,-0.25,-2.9375,0.625
336702621505,-0.4375,-3.1875,-0.4375
336702643917,-0.875,-2.6875,-1.5
336702658919,-0.875,-2.5,0.1875
336702681483,-0.125,-1.25,0.125
336702704008,0.3125,-0.3125,-1.625
336702719010,-0.0625,0.8125,-4.875
336702741520,0.5,-0.1875,-7.375
336702763989,-2.875,-1.3125,-6.875
336702779011,-0.9375,-1.5625,-4.8125
336702801523,-3.1875,-0.5625,-5.625
336702823980,-5.625,0.1875,-6.125
336702838930,-7.375,0.8125,-3.5625
336702861693,-3.625,-2.9375,-0.4375
336702883927,-3.3125,-5.75,-1
336702899021,-3.4375,-4.625,-3.6875
336702921484,-3.875,-1.4375,-4.25
336702943976,-4.6875,1.5,-2.9375
336702958937,-3.6875,2.125,-1.375
336702981519,-3.75,1.75,-1.3125
336702997947,-3.25,2.1875,-0.6875
336703018924,-1.8125,2.625,0.0625
336703041460,-2.5,2.75,1.3125
336703057988,-2.375,1.375,3.8125
336703079108,-0.25,-0.875,7.375
336703101551,3.25,0.8125,8
336703117936,3.375,1.8125,5.25
336703140440,0.6875,2.9375,0.4375
336703161543,-1.375,2.9375,-2
336703177886,0.3125,1.9375,-1.75
336703200437,3.125,-1.5625,-2.0625
336703221547,1.3125,-0.25,-5.625
336703237859,-4.3125,4.75,-11.4375
336703260371,-10.0625,6.8125,-10.8125
336703281594,-6,2.5625,-3.3125
336703297979,-1.3125,-3.375,-0.1875
336703320418,-2.375,-6.3125,-3.375
336703341505,-1.25,-4.625,-5.375
336703364043,0.0625,-2.0625,-5.6875
336703380482,-4,-0.8125,-7.1875
336703401511,-7.75,1.25,-5.125
336703417876,-3.125,0.6875,0.0625
336703440454,-1.4375,1.3125,3.1875
336703461483,-2.0625,1.875,7.0625
336703477877,3.375,3.25,8.5625
336703500374,7.6875,2.5625,7.0625
336703521525,-0.1875,1.375,1.4375
336703537931,-1.75,2.125,-0.1875
336703560432,5.8125,1.875,-0.125
336703581701,1,1.4375,-0.0625
336703597932,0.9375,-2.875,-5.625
336703620367,-7.3125,2.3125,-9.0625
336703641466,-3.875,3.5625,-6.625
336703657872,-2.625,-3.625,-0.1875
336703680476,-2.5625,-10.5,1.9375
336703701728,0.4375,-7.75,-0.25
336703718013,0.4375,-1.6875,-3.0625
336703740415,-5.375,2.75,-4.3125
336703761531,-3.75,3.0625,-2.9375
336703777909,-2.5,0.625,-0.3125
336703806634,-4.6875,1.0625,3.4375
336703821645,-1.75,4.375,6.125
336703844041,2.875,6.25,7.75
336703860390,2.8125,3.625,6.3125
336703881646,0.6875,2.4375,3.8125
336703897939,1.625,1.25,2.6875
336703920491,5.75,-1.625,0.3125
336703941648,1.875,-5.125,-1.5
336703957882,0.1875,-3.8125,-6.8125
336703980522,-8.4375,1.8125,-10.0625
336704003034,-5.875,1.0625,-2.6875
336704018004,0.75,-5.9375,2.9375
336704040521,-0.0625,-9.125,1.4375
336704061642,3.375,-5,-3.3125
336704077932,0.8125,-0.875,-6.3125
336704100422,-5.125,2.125,-4.6875
336704122948,-3.625,1.6875,-0.875
336704137955,-3.4375,0.0625,2.5625
336704160462,-1.125,1.1875,3.3125
336704182908,-2.0625,4,3
336704197932,-0.8125,4.5,4.6875
336704220410,2.875,4,7.375
336704242978,4.0625,2.375,5.5
336704258027,1.75,0.75,-0.125
336704280403,1.3125,-0.0625,-2.4375
336704302968,4.25,-3.3125,-4.0625
336704318655,-2.125,-0.3125,-8.0625
336704339691,-7.125,3.1875,-7
336704362274,-0.5625,-3,-1.0625
336704378574,0,-9.3125,1
336704399750,0.4375,-8.875,-0.375
336704422184,3.5,-4.3125,-2.5
336704438616,-0.6875,-0.4375,-4.5625
336704459714,-4.8125,2.8125,-5.125
336704482241,-3.0625,3,-6.375
336704498611,-4.625,3.0625,-4.75
336704519655,-3.25,4.5625,-2.3125
336704542204,-2,4.5625,-0.0625
336704558656,-1,1.0625,0.125
336704579666,-0.375,1.4375,-0.8125
336704602219,-1.8125,-0.1875,1.8125
336704618666,-4.625,3.875,0.5
336704639763,-11.4375,13.375,-3.1875
336704662214,-8.5,27.8125,-15.1875
336704684801,1.3125,46.625,-34.8125
336704699675,10.75,63.3125,-66.0625
336704722260,-1.6875,79.25,-91.875
336704745245,-9.25,86.0625,-112.812
336704759681,-11.25,81.25,-126.375
336704782153,-6.75,73.1875,-140.375
336704806219,5.125,64.8125,-144.5
336704819776,29.75,52.625,-147.5
336704842266,40.875,40.3125,-152.625
336704864660,48.1875,31.8125,-151.312
336704879738,56.5625,13.9375,-142.062
336704902293,60.5625,-5.875,-128.625
336704924775,61.1875,-18.3125,-120.875
336704939817,58.5625,-32.4375,-118.312
336704962266,59.8125,-30.9375,-113.125
336704984740,62.8125,-27.8125,-109.375
336704999690,53.625,-16.9375,-107.438
336705022295,43.5,1.8125,-107.625
336705044762,29.1875,26.625,-102.062
336705061177,17.75,52.9375,-93.4375
336705082203,4.3125,77.6875,-77.6875
336705104709,-3.8125,102.25,-63.25
336705119858,-8,120.875,-49.125
336705142262,-9.375,130.25,-34.0625
336705158035,-3.6875,136.375,-21.6875
336705179788,-5,140.688,-10.875
336705202272,-4.1875,143.188,2.875
336705217957,0.625,143.125,17.5625
336705241178,2.25,143.688,31.75
336705262242,0.75,143.75,42.125
336705278075,-2.1875,140.688,51.8125
336705301125,-7.5,137.562,63.25
336705322251,-8.375,130,74.6875
336705338062,-4.625,118.875,84.8125
336705361097,-5.125,100.562,94.0625
336705382155,-1.6875,75,107.938
336705397941,4.5625,49.625,118.438
336705421229,5.1875,30.125,119.438
336705442257,2.375,12.8125,114.875
336705457964,3.0625,-6.3125,112.875
336705481165,-1.0625,-27.5,110.188
336705502279,-10.75,-44.625,105.312
336705518027,-14.0625,-60.875,98.9375
336705541206,-13.0625,-68.6875,86
336705562300,-7.125,-74.875,69.6875
336705578072,-5.625,-87.3125,55.625
336705601179,-3,-94.875,37.3125
336705622299,-2.625,-101.125,18.75
336705638089,-3.1875,-98.3125,0.5625
336705661242,1.4375,-97.5625,-18.75
336705682277,3.4375,-102.375,-38.75
336705698075,-4.75,-110.438,-61.5
336705721128,-29.25,-123.75,-79.75
336705749817,-53.8125,-121.75,-85.8125
336705758005,-52.5,-115.438,-79.625
336705781164,-28.4375,-117.375,-68.375
336705802300,-21.25,-121.875,-61.375
336705818100,-30.9375,-118.688,-58.375
336705841252,-23.125,-109.375,-55.6875
336705862274,-2.375,-110.125,-44.8125
336705878082,2.25,-113.25,-30.9375
336705901177,-11.25,-110.5,-20.8125
336705922217,-14.5,-96.75,-16.375
336705938060,-7.25,-87.0625,-1.9375
336705961156,3.375,-80.9375,13.9375
336705982275,4.25,-68.8125,29.6875
336705998028,8.1875,-56.1875,41.125
336706020563,10.3125,-37.5625,47.0625
336706042335,4.3125,-22,50.75
336706066225,-0.9375,-14.5,54.75
336706089446,-4.125,-8.0625,58.625
336706102235,-2.8125,1.4375,61.25
336706118040,-0.6875,14.25,61.4375
336706140547,-2.375,25.5,59.4375
336706163690,-8.75,34.75,56.625
336706178051,-18.4375,41.625,51.375
336706200592,-26.75,50.8125,44.3125
336706223659,-24.25,59.375,37.625
336706238101,-21.3125,64.25,34.8125
336706260503,-16.0625,73.625,30.625
336706283683,-12.25,86.75,23.6875
336706304791,-11.9375,95.125,12.0625
336706320625,-18.75,106.625,2.1875
336706343731,-23.5625,118.688,-6.25
336706364819,-14.6875,133.25,-20.5625
336706380562,-18.4375,145.375,-37.0625
336706403720,-27.9375,157.125,-53.4375
336706424778,-36.75,158.938,-60.5
336706440585,-28.75,165,-65.125
336706471206,-21,167.062,-71.4375
336706486224,-27.125,165.375,-75.0625
336706500507,-17.875,156.625,-69.125
336706523756,-4.6875,146.375,-58.875
336706544790,-6.9375,138.812,-49.25
336706560526,-8.4375,130.625,-36.6875
336706583736,6.0625,121.812,-20.0625
336706604763,18.1875,108.625,-2.3125
336706620580,20.25,93.75,13.75
336706643737,24.75,80.9375,30.125
336706664845,30.1875,61.5,48.1875
336706680591,31.5,39.375,67
336706703736,28.8125,17.125,81.4375
336706724805,26.125,-0.5,92.25
336706740559,25.4375,-18.75,97.5625
336706763710,24.5625,-33.0625,99.3125
336706784828,23.0625,-44.625,97.5
336706800621,16.9375,-59.875,93.875
336706823682,10.1875,-70.125,89.5
336706844868,1.5,-71.75,81.9375
336706860498,-9.625,-74.3125,69.8125
336706883738,-16.9375,-77.1875,54.5625
336706904804,-22.75,-85.625,41.6875
336706920618,-41.75,-88.0625,29.8125
336706943114,-54.875,-92.5625,22.375
336706964850,-58.75,-98.1875,24
336706980612,-68,-97.125,25.6875
336707003082,-80.125,-94.9375,27.0625
336707024890,-83.5625,-96.6875,32.875
336707040577,-88.125,-98.8125,38.125
336707063077,-94.9375,-102.562,42.25
336707084824,-90,-102.5,43.5625
336707101094,-72.9375,-102.375,47.25
336707123037,-66.75,-104.125,59.8125
336707146187,-63.3125,-109.25,75.625
336707160515,-62.5625,-113.688,84.6875
336707183147,-58.5,-110.438,84.625
336707206203,-49.25,-98.1875,75.625
336707220629,-41.375,-85.1875,63.125
336707243094,-34.25,-75.8125,52
336707266276,-28.4375,-64.6875,40.1875
336707287317,-29.75,-46.5625,28.25
336707303136,-28.8125,-33.9375,18.6875
336707326279,-26.9375,-27.1875,10.1875
336707347341,-30.8125,-21.0625,3.5625
336707363102,-28.9375,-14.875,4.5
336707386295,-18.4375,-12.125,7.4375
336707407070,-11.625,-15.125,3.625
336707423090,-11.1875,-15.1875,-5.625
336707436717,-3.8125,-6.6875,-9.5
336707459195,-7.375,-0.6875,-9.5625
336707474160,-14.25,6.625,-9.9375
336707496666,-12,8.3125,-10.375
336707519146,-19.1875,5.75,-6.8125
336707542406,-24.0625,-3.6875,1.6875
336707556644,-7.6875,-10.1875,9.8125
336707579159,2.1875,-7.25,10.9375
336707602324,0.125,-3.1875,6.5625
336707616690,-3.8125,0.5,5.8125
336707639875,4,0.25,8.0625
336707654171,5.75,-1.0625,8.75
336707676738,6.6875,-0.4375,8.3125
336707699846,9,1.25,4.375
336707714174,5.5,3.5,-0.75
336707736689,-1.25,3.5,-5.5625
336707759872,-0.125,2.125,-9.9375
336707774208,-2.125,-2.5625,-10
336707796695,-10.25,-4.5,-8.625
336707819887,-10.0625,3.0625,-4.75
336707834118,-11.9375,6,-1.0625
336707856637,-14.8125,1.375,6
336707879943,-10.1875,-8.3125,8.75
336707894171,1.6875,-10.6875,5.375
336707916725,1.375,-3.25,0.5625
336707939812,1.6875,-0.0625,0.5
336707954428,5.875,-2,5.125
336707976723,9.9375,-1.8125,8.4375
336707999806,17.875,0.375,7.3125
336708022531,23.125,0.125,3.1875
336708036761,22.25,-5.125,-10.25
336708059204,4.4375,-7.625,-17.5625
336708082435,-8.3125,-10.125,-13.0625
336708096797,-10.8125,-4.8125,0.5
336708119229,-5.8125,-0.6875,8.875
336708134147,-2.75,-3.5625,10.375
336708156640,-3.1875,-10.5625,8.5625
336708179198,1.875,-12.8125,3.25
336708194188,0.8125,-3.3125,0.5625
336708216736,3.375,5.4375,1.125
336708239171,2.9375,5.5,1.8125
336708254273,1,3.6875,-0.375
336708276675,-0.25,4.375,-0.1875
336708299220,2.4375,7.125,0.1875
336708314312,5.5625,4.8125,1
336708336722,5.125,-1.125,1.5
336708359261,5.875,-7,-0.0625
336708374153,1.375,-7.25,3
336708396689,0.5625,-7.875,5.3125
336708419407,2.875,-6.4375,5.125
336708434210,-0.0625,-1.4375,-0.625
336708456685,-0.9375,1.0625,-5.625
336708479220,-5.9375,0.4375,-7.25
336708494221,-9,0.5625,-4.75
336708516748,-6.75,-0.3125,-0.1875
336708539247,-0.4375,-0.625,1.375
336708554202,2.125,-1.0625,0.625
336708576651,1.4375,-0.0625,0.625
336708599230,1.625,2.5625,0.875
336708614139,-0.75,2.375,2.1875
336708636788,-2.8125,3.875,0.8125
336708659249,-0.8125,3.8125,2.125
336708674214,3.3125,2.25,2.625
336708696717,3.875,-0.8125,-0.375
336708719260,-1.1875,-2.75,-1.9375
336708734230,-0.625,-2.75,0.75
336708756760,-0.4375,-0.6875,1.875
336708779262,-0.6875,2.875,0.6875
336708795625,0.125,2.625,-0.4375
336708816788,0.6875,0.125,-1.6875
336708839177,1.3125,-0.375,-3.3125
336708855671,0.8125,3,-3.8125
336708876771,-0.3125,4.5625,-3.0625
336708899223,-1.0625,2.5,-0.75
336708915611,-0.4375,1.0625,0.1875
336708936763,1.8125,0.5,-0.125
336708959154,0.1875,0.4375,0.5
336708975690,0.4375,2.375,3.125
336708996747,7.375,3,6.25
336709019268,5.0625,5.625,7.8125
336709035733,8.3125,16.0625,2.6875
336709056760,9.25,23.4375,-5
336709079248,2.9375,23.125,-7.75
336709095661,-0.9375,21.3125,-14.3125
336709116801,-5.25,22.25,-21.5625
336709139248,-11.6875,20.875,-22.9375
336709155700,-7.1875,21.75,-22.8125
336709176756,-5.5625,19.9375,-20.75
336709199227,-3.875,21.5625,-22.6875
336709215630,-4.25,19.8125,-22.875
336709236752,-4.375,13.9375,-17.9375
336709259265,-1.125,10.9375,-11
336709275799,1.3125,10.9375,-9.9375
336709296730,1.25,13.5625,-9.375
336709319311,2.8125,13.8125,-11.25
336709335658,0.8125,8.4375,-11.4375
336709356788,-1.9375,3,-9.1875
336709379324,-1.375,3.375,-8
336709395693,-1.1875,3.6875,-6.375
336709416737,0,1.625,-2.9375
336709439247,1.6875,1.125,-3.0625
336709455685,2.9375,0.9375,-2.5625
336709476670,4.3125,-0.3125,-1.125
336709499274,2.4375,-1.4375,2.125
336709515626,1.5625,-4.0625,3.75
336709536750,0.375,-6.4375,2.25
336709559298,-2.5,-6.875,-1.4375
336709575681,-5.5625,-5.0625,-3.25
336709596762,-3.0625,-2.3125,-3.5625
336709619312,-1.8125,-0.1875,-3.8125
336709635663,-2.1875,0.8125,-1.625
336709656731,-1.0625,0.3125,-0.125
336709679273,0.25,-0.875,-0.125
336709695723,1.125,0.4375,0.625
336709716704,1.5,1.3125,0.75
336709739294,1.25,0.75,0.625
336709763158,0.8125,0.625,-0.4375
336709778226,0.625,-0.25,-0.6875
336709800725,0.1875,-0.625,-0.1875
336709815676,0.625,0.5625,0.8125
336709838174,2.0625,0.8125,0.3125
336709859249,0.375,0.4375,-0.5
336709875654,0.125,-0.3125,-1.0625
336709898128,-0.5,-1,-0.75
336709919335,-0.625,-0.625,0.125
336709935717,0.4375,-0.3125,0.1875
336709958218,0.375,0,-0.125
336709979274,0.3125,-0.1875,-0.875
336709995760,0.125,-0.1875,-0.5625
336710018220,0.9375,-0.0625,0.4375
336710039263,1.5,0.625,0.5
336710055710,1.1875,0.8125,-0.375
336710078189,0.4375,1.375,-0.75
336710099255,1,0.75,-0.25
336710115751,-0.1875,-0.5625,-0.5
336710138181,-0.25,-1.3125,-0.25
336710159236,-0.5625,-1.125,-0.375
336710175681,-0.375,0.0625,-0.3125
336710198222,0.1875,0.625,-0.25
336710219242,-0.3125,-0.875,-0.375
336710235683,-0.625,-1.0625,-0.5625
336710258262,-0.1875,-0.25,0.375
336710279365,0.75,1.1875,0.8125
336710295769,1,1.4375,0.0625
336710318222,0,0.75,-0.6875
336710339206,-0.5625,-0.6875,-0.8125
336710355775,-1.0625,-0.8125,-0.3125
336710378233,-0.4375,0.625,0.5
336710399309,0.9375,1.5625,-0.125
336710415752,0.375,1.625,-0.3125
336710438272,-0.3125,0.125,-0.375
336710459280,-1.1875,-1.0625,-0.1875
336710475747,-1.6875,-1.125,0.375
336710498200,-0.125,0.75,0.25
336710519292,0.3125,1.0625,-0.5
336710535727,-0.1875,1.25,-1.0625
336710557431,1.5,3.0625,-1.0625
336710579967,2,3.375,0.4375
336710595062,0.375,1.9375,0.5
336710617440,-0.6875,-0.9375,0.3125
336710640036,-3.125,-3.0625,-0.9375
336710654962,-3.3125,-2.75,-1.125
336710677508,-2.75,-1.6875,-1.1875
336710699939,-2.4375,-0.5,-1
336710715057,-1.75,-0.25,-0.5625
336710738100,0.875,1,0.1875
336710759898,0.9375,0.3125,0.875
336710776441,1.1875,-0.625,1.1875
336710797515,0.125,-0.875,0.9375
336710819985,-0.25,0.0625,0
336710835058,1.375,1.4375,-0.75
336710857454,1.4375,1.3125,-0.5
336710879975,2.4375,1.3125,0.3125
336710894981,2.8125,0.9375,1.4375
336710917486,2.25,-0.875,2.1875
336710940011,0.8125,-2.0625,-0.375
336710956479,-3.125,-5.125,-1.3125
336710977470,-4.5625,-4.75,-2.0625
336710999981,-3.1875,-1.375,-1.875
336711016446,-1.3125,0.6875,-0.5625
336711037483,0,0.5625,0.8125
336711059885,1.4375,0.1875,1.5
336711076376,1.5,0.3125,1.4375
336711097517,1.5,-0.25,0.6875
336711119998,0.875,-0.25,0
336711136406,-0.1875,0.1875,-0.4375
336711157476,-0.25,0.4375,-0.5
336711180023,-0.8125,0.875,-0.375
336711203939,0.1875,0.875,0
336711217517,-0.125,0.1875,0.5
336711239999,-0.9375,-0.6875,0.25
336711256435,-1.0625,-0.0625,-0.5625
336711277410,-0.25,0.5,0.625
336711300015,0.125,0.25,0.6875
336711316397,-0.5,0.0625,0.25
336711337672,-0.8125,-0.0625,-0.75
336711360018,-1.6875,-0.6875,-1.375
336711376388,-2,-1.375,-1.3125
336711397542,-3.625,-1.5,-0.8125
336711419983,-2.875,-1.25,-2
336711436461,-4.1875,-0.75,-2.875
336711457494,-2.5,0.1875,-3.5625
336711480097,-1.25,2,-2.5625
336711496439,0.6875,7.4375,-3.9375
336711517519,-1.75,16.4375,-12.375
336711540017,-6.625,24.125,-29.9375
336711556447,-12.1875,28.25,-44.5625
336711578952,0.375,31.5,-55.3125
336711600016,12,52.6875,-78.3125
336711616411,12.625,78.6875,-108
336711637435,-9.5,93.625,-132.375
336711659888,-24.0625,101.375,-149.188
336711675730,-23.875,101.375,-157.188
336711697468,-21.5,91.9375,-153.75
336711720049,-21.9375,65.375,-144.75
336711735787,-22.6875,18.6875,-119.625
336711757477,-9.5,-37.9375,-77.4375
336711780024,26.5625,-109,-35.875
336711795783,67.875,-181.625,-11
336711817538,128.625,-212.812,-5.1875
336711840022,175.688,-228.875,-17.125
336711862452,213.562,-210.438,-15.4375
336711878935,209,-149.25,-25.75
336711900054,184.312,-84.5625,-42.6875
336711915757,119.625,-30.625,-76.875
336711938906,-2.6875,-17.8125,-106.562
336711959960,-117.938,-4.6875,-99.9375
336711975810,-146.812,32.0625,-105
336712006448,-97.8125,89.375,-117.312
336712019950,-66.375,137.75,-115
336712035781,-101.25,172.625,-105.938
336712058961,-158.875,196.062,-84
336712087472,-172.312,223.75,-58.875
336712095785,-151.625,239.875,-25.3125
336712118974,-104.312,240.438,12.875
336712147482,-43.5625,220.75,51.5
336712155766,-8.0625,203.062,78.125
336712178986,20.0625,179.75,101.812
336712200030,46.5625,151.938,129.312
336712215774,63.625,107.562,154.625
336712238754,71.875,62.8125,177.375
336712259983,78.6875,19.4375,194.562
336712275774,89.625,-17.75,199.938
336712298976,87.9375,-47.5,197.062
336712320064,80.1875,-70.125,186
336712335832,65.1875,-92.375,173.75
336712366266,56.5625,-106.438,153.312
336712382909,55.375,-95.25,116.438
336712395804,59.3125,-64.5,67.75
336712426500,61,-33.0625,12.625
336712440097,13.3125,-9.625,-38.25
336712455793,-47.4375,12.375,-89.375
336712478908,-90.125,34.75,-135.625
336712500010,-111.562,56.5,-175.375
336712515725,-121.75,65.875,-206.062
336712539024,-136.812,66.125,-221.875
336712561403,-141.938,58.8125,-223.75
336712575783,-140.938,40.625,-209
336712598970,-131.875,16.3125,-185
336712620026,-112.625,-8.5,-158.375
336712635831,-84.9375,-47.6875,-128.125
336712658311,-57.125,-98.1875,-93.5625
336712680138,-19.3125,-136.125,-59
336712695773,19.375,-167,-32.625
336712718311,82.25,-195.125,-3.6875
336712739988,123.125,-193.062,21.4375
336712763910,129.812,-180.625,39.6875
336712778350,130.375,-164.875,58.875
336712800026,121.562,-154.375,76.0625
336712815816,131.25,-147.062,83.875
336712838335,132.188,-129.688,79.125
336712861499,119.375,-103.938,71.5
336712875872,119.75,-84,63.5625
336712898307,107.875,-65.75,58
336712921460,110.688,-61,45.875
336712935825,94.375,-61.8125,27.1875
336712958365,64.4375,-72.1875,11.625
336712987563,61.5,-84.1875,-1.5
336713004038,85.0625,-81.625,-13.0625
336713018366,96.75,-59.4375,-21.75
336713041526,84.1875,-36.9375,-27.125
336713062623,68.75,-13.75,-28.8125
336713078405,53.625,15.75,-36.75
336713101563,29.9375,55,-54.5
336713122613,0.625,95.8125,-75.375
336713138409,-40.625,130.812,-92
336713161567,-78.9375,161.812,-102.438
336713182618,-122.812,194.125,-110.125
336713198314,-140.812,234.375,-117.812
336713221571,-151.188,261.625,-118.125
336713242610,-165.75,275.75,-96.375
336713258334,-158.875,276.25,-67.375
336713281571,-120.438,269.375,-40.0625
336713302626,-85.5625,245.438,-19.9375
336713318321,-61.375,212.75,5.1875
336713341597,-52.4375,174.062,34.3125
336713362583,-33.75,141.375,56.75
336713378361,-19.625,113.188,62
336713402152,-35,96.1875,59.5
336713422539,-30,94.625,78.1875
336713438352,-12.6875,91.75,105.125
336713461967,-15,79.5625,119.938
336713482610,-24.9375,60.6875,137.438
336713498366,-20,23.4375,164.062
336713521592,-46.8125,-26.1875,175.062
336713542630,-66.875,-71.6875,182.375
336713558343,-63.9375,-114.625,189.125
336713580837,-61,-141.75,174.188
336713603979,-42.0625,-151.875,151.75
336713618386,-27.4375,-165.812,139.062
336713640871,-18,-171.312,121.938
336713662617,-12.625,-158.125,100.188
336713677582,3.375,-143.688,83.5625
336713691965,23.75,-118.875,63
336713714453,29.25,-93.1875,37.375
336713737685,28.375,-69.5625,6.5625
336713751953,36.0625,-52.125,-25.0625
336713774434,39.5625,-45,-57.875
336713797572,40.1875,-36.875,-94.1875
336713811937,31.125,-31.1875,-131.625
336713834438,20.1875,-37.9375,-155.438
336713857620,-0.4375,-52.8125,-165.438
336713871926,-28.75,-63,-169.875
336713894424,-46.125,-66,-171.812
336713917623,-56.1875,-75.6875,-177
336713931962,-62.1875,-78.4375,-185.938
336713954455,-58,-84.375,-181.375
336713977637,-54,-104.812,-169.938
336713992031,-49.6875,-115.875,-166.812
336714014436,-74.75,-106.375,-173.125
336714037627,-113.375,-87.0625,-169.062
336714051989,-123.312,-81.125,-151.188
336714075948,-107.25,-91.5,-140.875
336714097596,-96.625,-106.375,-132.938
336714111889,-78.3125,-95.3125,-122.438
336714134410,-41.0625,-87.375,-98.875
336714157643,6.6875,-80.25,-64.875
336714171926,39.8125,-66.0625,-33.25
336714194451,42.9375,-46.5,-10.125
336714217542,47.4375,-33.5625,15.0625
336714231974,72.1875,-34.5,45.375
336714254509,116.938,-39.3125,75.3125
336714277613,157.688,-28.0625,90.1875
336714291951,179.75,-19.25,105.875
336714314441,185,-16.5,122.688
336714337612,188.875,-15.1875,139
336714352028,189.5,-8.4375,148.438
336714374482,173.188,5.125,144.062
336714397629,145.188,16.625,137
336714412002,113.375,15.3125,134.375
336714434385,94.4375,6.8125,138.562
336714458077,96.375,2,131.188
336714471956,94.75,-2.9375,119.125
336714494458,79.4375,-27.8125,104.688
336714517654,45.3125,-44.875,74.625
336714531882,20.6875,-45.25,38.8125
336714554505,10.1875,-39.75,5.625
336714577601,14.5625,-41.5,-29.5625
336714591950,-25.625,-51.6875,-54.0625
336714614491,-62.1875,-59.1875,-79.125
336714637625,-71.4375,-65.8125,-105.5
336714651974,-59.375,-59.0625,-123.375
336714674475,-56.9375,-48.875,-129.312
336714696956,-81.8125,-39.75,-130.312
336714711920,-119.375,-30.0625,-132.438
336714734451,-154,-10.3125,-130.312
336714756968,-176.875,14.25,-126.625
336714771926,-186.562,42,-110.625
336714794493,-172.875,70.625,-91.875
336714816964,-157.5,93.9375,-78
336714831954,-164.125,119.438,-60.625
336714854460,-177,139.75,-37.4375
336714876994,-163,157.062,-11.125
336714891988,-124.625,168.125,10.9375
336714914515,-102.625,180.812,23.625
336714937033,-96.6875,187.688,39.8125
336714951944,-68.375,180.438,62.75
336714974528,-22.75,167,85.625
336714996933,12.625,157.625,92.75
336715011980,41.875,145.625,98.8125
336715034507,61.625,122.688,110.812
336715057003,71.25,93.6875,124.5
336715071977,68.625,66.875,136
336715094479,68.75,41.25,143.312
336715116952,62,19.125,149.062
336715131930,60.25,-8,160.312
336715154436,49.875,-41.1875,171.438
336715176937,32.9375,-63.9375,176.938
336715191928,20.5,-82.4375,182.5
336715214440,17.125,-102,184.812
336715236963,3.3125,-112.25,178.875
336715252613,-3.9375,-116.125,171.625
336715274500,-14.75,-128.062,170.938
336715296934,-33.25,-124.062,162.062
336715311919,-50.5625,-111.875,146.188
336715334464,-61.4375,-90.375,128.938
336715356961,-64.0625,-72.75,114.312
336715372004,-61.9375,-60.5625,105.125
336715394478,-65.9375,-40.3125,90.75
336715416935,-62.375,-19.6875,75.9375
336715431944,-59.75,-3.75,62.8125
336715454459,-54.4375,5.6875,52.5
336715476991,-53.9375,12,45.0625
336715493408,-48.6875,17.875,37.25
336715514441,-38.3125,21.25,28.75
336715536972,-30.125,16.375,20.4375
336715553428,-27.4375,11.375,15.0625
336715574487,-22.1875,9.3125,11
336715596987,-13.875,10.8125,6.5625
336715613368,-6.5625,9.0625,3.875
336715634456,-9.5,3.625,-0.4375
336715656959,-15,-1.8125,-4.6875
336715673396,-15.125,-4.875,-7.4375
336715694460,-13.3125,-5.875,-8.9375
336715716944,-11.8125,-1.4375,-12.4375
336715733420,-16.625,3.375,-11.75
336715754473,-13.1875,7.25,-8.125
336715777042,-5.6875,11.0625,-2.8125
336715793427,-7.625,7.875,-1.875
336715814539,-21.125,-0.1875,-2
336715837050,-15,-2.0625,-1.125
336715853406,-2.3125,0.0625,1.6875
336715874619,1.9375,-1.0625,3.25
336715897027,-6.6875,-1.5,1.6875
336715913652,-8.0625,-0.8125,-0.75
336715934489,-1.4375,-2.5625,0
336715957144,1.875,-5,-1.1875
336715973437,-0.6875,-4.75,-1.4375
336715994487,0.0625,-8.375,-0.75
336716017003,3.125,-8.375,0.3125
336716033419,1.0625,-4.6875,1.6875
336716054484,4.5,-0.6875,1.5
336716070936,1.5625,-0.625,-0.75
336716093443,-7,-3.125,-1.25
336716114559,-4.125,-0.875,-0.375
336716130948,-3,7.75,-0.0625
336716153440,-5.25,12.9375,1
336716174606,-6.5,13.625,4.4375
336716190935,-6.8125,11.5,5.75
336716213431,-3.4375,10.4375,4.1875
336716234489,-3.4375,9.8125,1.9375
336716250967,0,3.5,0.0625
336716273486,0.6875,-0.5,-2.375
336716294531,-4.375,-4.0625,-4.4375
336716310996,-4.6875,-1.5,-4.75
336716333436,-3.9375,1.25,-8.875
336716354573,-11.5625,3.1875,-10.3125
336716370901,-15.5,3.8125,-9.6875
336716393441,-14.6875,2.1875,-7.125
336716416023,-14.25,1.5,-3.75
336716430910,-9.1875,3.25,-1.75
336716453512,-4,5.3125,0
336716475992,-2.1875,7.125,3.125
336716491014,0.9375,7.625,6.5
336716513587,0.6875,5.4375,3.3125
336716535986,-3.375,3,-1.3125
336716551006,-1.375,3.0625,-5.8125
336716573504,0.25,5.5,-3.8125
336716595956,-1.75,9.1875,-1.6875
336716612444,-4.625,8.625,-0.8125
336716633462,-6.75,10.8125,-3.9375
336716655963,-1.5625,9.1875,-4.3125
336716672519,3.5,5.8125,-4.125
336716693500,-2.4375,0.75,-2.875
336716716028,-4.9375,2.0625,-0.625
336716732459,2.375,1.1875,2.5
336716753477,2.5625,-1.5625,2.3125
336716775132,-2.6875,-2,0.6875
336716797771,1,-1.75,1.6875
336716812728,0.6875,-1.6875,2.5625
336716835254,-2.875,-2.4375,2.375
336716857769,-0.4375,-2.0625,2.125
336716872685,-0.5625,-1.125,0.125
336716895208,-1.3125,-0.9375,-1.125
336716917699,0.5,1.8125,-1.25
336716932770,0.9375,4.1875,0.25
336716955288,-0.1875,1.625,2.375
336716970960,-1.375,-0.0625,1.375
336716992784,-1.9375,-0.375,-2
336717015161,-0.6875,-1.4375,-1.875
336717030951,0.8125,-2.8125,0.875
336717052696,-0.25,-4,2.8125
336717075158,0.125,-2.6875,1.75
336717090980,1.3125,-1.75,0.4375
336717112758,1.25,-0.6875,0.1875
336717135242,0.4375,-0.125,0.25
336717151029,-0.75,-0.25,0.5625
336717172740,-1.1875,0.5625,-0.5
336717195246,-1,1,-2.4375
336717211640,-0.1875,0.1875,-2.4375
336717232789,0.0625,1,-1.375
336717255224,-0.5,0.3125,0
336717271696,-0.875,-0.625,0.875
336717292762,0.3125,-1.375,-0.8125
336717315165,0.875,-1.4375,-1.8125
336717331658,1.625,-1.625,-0.75
336717352656,0.625,-0.0625,0
336717375293,0.4375,-0.0625,-0.75
336717391004,-1.0625,-0.125,-0.5625
336717412756,-0.625,-0.5,0.5625
336717435215,0.25,0.5625,1.125
336717450991,-0.25,2.625,1.0625
336717472740,0.0625,3.1875,0.875
336717495259,-0.0625,2.5625,-0.375
336717510968,-2.0625,1.875,-1.25
336717534112,-1.5625,2.625,-0.875
336717557136,-0.375,2.4375,0.375
336717570964,-1.5,0.4375,1.1875
336717594197,-2,-1.6875,1.1875
336717615294,-0.875,-1.5625,1.375
336717631082,-0.3125,0.0625,2.5
336717654191,0,-1.4375,4.125
336717675160,0.375,0.5625,3.625
336717690996,-0.0625,2.8125,0.375
336717714166,-0.1875,3.3125,0.125
336717735196,-0.25,2.375,1.75
336717750982,-1.8125,-1,4
336717774185,1.1875,1.0625,2.25
336717795224,1.125,3.3125,-0.9375
336717810961,-1.125,3.375,-1.9375
336717834170,-1.625,0.5,0.4375
336717855244,-1.5625,-0.4375,1.125
336717871057,0.1875,0.1875,-0.5625
336717894148,-0.1875,-0.0625,-1.1875
336717915192,-0.3125,-0.1875,-0.3125
336717931042,1.5625,-1.0625,0.5
336717954183,1.5625,-0.9375,0.25
336717975363,0.9375,-0.5,-0.5
336717991059,-0.0625,-0.6875,-0.375
336718014181,0.5,-0.875,-0.1875
336718035189,1.1875,-1.3125,0.8125
336718050990,0.875,-0.9375,1.125
336718074128,-0.3125,0.25,0.125
336718095280,-0.3125,0.5625,-0.6875
336718111029,-0.875,-0.0625,-0.4375
336718134216,-0.8125,0.3125,-0.4375
336718155250,-0.875,-0.3125,0.3125
336718170980,-0.75,-0.8125,0.5625
336718194216,-0.5,-0.375,0
336718215187,0.125,-0.625,-0.5
336718231048,-0.875,-1.25,-0.3125
336718254229,-1.5625,-1.875,0.125
336718275261,-0.375,-1.9375,0
336718291015,0.4375,-1.25,0.3125
336718313595,1,-1,0.5
336718335209,-0.0625,-1.8125,0.75
336718351067,-0.5625,-1.25,0.8125
336718373559,-0.3125,-0.875,0.625
336718395201,-0.375,0.0625,0.625
336718410972,-0.0625,-0.125,0.8125
336718433565,-0.5,-1.375,0.6875
336718455319,-0.5625,-1.125,-0.4375
336718471044,-0.125,-1.25,0
336718493501,-0.125,-0.8125,0.6875
336718516749,-1,-1.3125,0.8125
336718531440,-0.8125,-1.125,0.25
336718553511,0.3125,-1.125,0.3125
336718576669,0.0625,-0.9375,0.375
336718591005,-1.0625,-1.3125,0.4375
336718613511,0.0625,-1.4375,0.3125
336718636653,-0.125,-1.5,0.375
336718651102,-1,-1,0.625
336718680349,0.375,-1,0.3125
336718696777,0.125,-1.125,0.4375
336718711003,0.8125,-1.5625,0.375
336718733570,0.0625,-1.5625,0.625
336718756720,-0.3125,-1.8125,0.4375
336718771135,-0.375,-2.0625,-0.1875
336718793602,1.5625,-3.125,-0.4375
336718816736,2.6875,-4,-4.0625
336718831058,-2.875,-2.375,-5.5
336718853554,-5.625,-0.25,-7.125
336718876738,0.5625,0.25,-3.5625
336718890999,2,-3.3125,0.3125
336718913591,-1.875,-4,1.25
336718936708,-0.0625,-1,-1.25
336718957846,4.0625,0.8125,-2.9375
336718981652,0.0625,-0.875,-1.375
336718996733,-1.5625,-1.0625,-0.5625
336719017851,-1,-0.875,-0.25
336719033628,0.6875,0.0625,-0.125
336719056686,2.125,0.125,0
336719077755,0.3125,-0.125,0.25
336719093565,-0.0625,-0.3125,0.1875
336719116779,0.5,0.0625,0.0625
336719137790,-0.0625,-0.3125,0.3125
336719153597,0.25,0.1875,-0.5625
336719176802,0.0625,0.9375,-0.875
336719197812,0.25,0.875,-0.8125
336719213561,-0.6875,-0.4375,0.25
336719236099,0.0625,-0.4375,0.3125
336719257848,0.4375,-0.75,0.5625
336719273560,0.625,0.3125,-0.75
336719296057,-1,1,-0.6875
336719317827,-0.8125,-0.0625,0.0625
336719333616,-0.9375,-0.625,0.125
336719356077,-0.375,-0.375,-0.625
336719377946,-0.4375,0.1875,-1.3125
336719393656,-0.625,0.0625,-0.625
336719416158,-1.125,0.0625,-0.25
336719439272,-1,0,-0.25
336719453604,-2.125,0.625,-0.875
336719476077,-2.6875,0.25,-1.625
336719499238,-2.6875,0.1875,-1.9375
336719513648,-5.3125,1.0625,-1.625
336719536128,-4.0625,1.8125,-0.875
336719559261,-2.5,2,-1.125
336719573612,-2.0625,1.4375,-1.375
336719596079,-1.4375,1.8125,-1.3125
336719619243,-1.6875,1.625,-0.75
336719633639,-1.25,1.75,-0.1875
336719656173,0.3125,1,-0.5625
336719679288,0.8125,0.0625,0.25
336719693654,0.25,0.8125,0.5
336719716063,0.6875,0.5625,0.8125
336719739308,2,0.5,1.3125
336719760358,1.5,1.375,0.8125
336719776154,0.9375,1.5,0.5625
336719799237,0.5625,0.9375,-0.0625
336719814465,0.9375,0.9375,-0.625
336719836071,1.25,1.5,0.4375
336719859414,1.4375,4.625,1.8125
336719873596,1.75,6.125,1.625
336719895365,1.8125,3.875,2
336719909684,1.9375,2.25,1.1875
336719932887,-0.25,0.8125,2.25
336719955367,-0.1875,0.6875,3.3125
336719969712,-0.4375,0.75,3.8125
336719992949,1.25,2.9375,2.6875
336720015318,2.5625,4.875,0.3125
336720029743,-0.375,3.9375,-0.0625
336720052902,-2,2.8125,-0.875
336720075415,-2.1875,2.5,-1.5
336720089753,-0.0625,0.75,-0.6875
336720112916,1.25,-0.875,0.625
336720135294,-0.4375,-1.375,1.3125
336720149747,0.5,0.1875,0.5625
336720172872,0.9375,0.375,-0.0625
336720195396,1.3125,0.5,-0.375
336720209715,0.3125,-1.5625,0.625
336720232888,1,-1.5,1.125
336720255291,0.6875,1.125,-0.5
336720269748,-0.0625,1.5625,-0.8125
336720292931,-1.9375,0.8125,-0.1875
336720315311,-2.25,-0.3125,0.0625
336720329734,-0.625,-0.5625,-0.3125
336720352182,0.25,-0.1875,-0.1875
336720367123,-0.375,-0.125,0.1875
336720389702,0,-0.25,0.625
336720412244,-0.25,-0.4375,0.25
336720427229,0.0625,-0.875,-0.25
336720449670,-1.5625,-0.75,0.125
336720472202,-2.25,-1.125,-0.0625
336720487138,-1.25,-0.9375,-0.4375
336720509629,-1.4375,-2.5625,-0.75
336720532226,-2.75,-2.9375,-0.75
336720547256,-1.4375,-1.9375,-1.375
336720569744,-0.3125,-2.0625,-1.75
336720592201,-0.25,-2.25,-2.5
336720607196,-0.8125,-1.125,-3.8125
336720629696,-1.625,0.5,-4.75
336720652250,-0.5,-0.5625,-2.6875
336720667207,1,-1.9375,-1.5
336720689724,0.25,-2.375,-1.5625
336720712218,1.8125,-1.25,-2.1875
336720727254,1.5625,-1.125,-1.0625
336720749705,0.9375,-0.8125,-0.5625
336720772283,-1,-0.6875,-1.25
336720787233,0.1875,0.0625,-1.9375
336720809657,0.6875,0.5,-1.375
336720832221,0.9375,-0.625,-0.0625
336720847245,0.4375,-1.6875,1.125
336720869740,-0.125,-0.125,0.6875
336720892295,0.25,0.75,0
336720907221,-0.4375,0.875,0.25
336720929746,-0.75,0.3125,0.9375
336720952164,-1.375,-1,1.875
336720967260,-0.625,-0.375,1.875
336720989737,1.1875,1,0.9375
336721012217,-0.75,1.375,1
336721027240,-1.0625,1.0625,0.8125
336721049778,-1.375,1.3125,0.3125
336721072271,-1.5625,1.1875,-0.4375
336721087246,-0.4375,1.25,0.1875
336721109803,0.3125,0.6875,0.3125
336721132242,-0.4375,-0.5,0.5
336721148665,0.25,-1,0.5
336721169713,0.25,1,-0.8125
336721192268,-0.75,0.8125,-0.375
336721208730,-0.4375,-0.3125,-0.0625
336721229764,-1,-0.625,-0.1875
336721252228,0.875,-0.75,0.6875
336721268701,1.9375,0.5625,0.625
336721289702,-0.3125,0.5625,0
336721312290,0.3125,-0.0625,0.125
336721328713,0,-0.625,0.375
336721349753,0.875,-0.375,0
336721372286,1.4375,0.4375,-0.375
336721388659,1.4375,-0.625,0.4375
336721409760,0.9375,-0.9375,0.75
336721432242,0,0.875,0.625
336721448684,1.0625,2.1875,-0.25
336721469732,-0.0625,1.5,-0.5
336721492276,0.25,0.0625,0
336721508671,2,0.75,0.8125
336721529668,3.5,0.6875,2.5
336721552307,0.8125,0.5,3.375
336721568709,1.3125,1.125,2.125
336721589752,2.4375,2.1875,0.5
336721612194,3,2.125,-0.0625
336721628742,0.8125,1.0625,0.8125
336721649779,0,-0.1875,1.4375
336721672225,2.5625,0.5625,1.125
336721688602,2.375,1.375,0.1875
336721709839,1.5625,1.75,0.1875
336721732277,-0.4375,0.5625,0.4375
336721748684,-0.25,-0.4375,0.5625
336721769763,1.1875,0.4375,-0.4375
336721792296,1.125,-0.625,-0.375
336721808716,1.125,-0.9375,0
336721829764,-0.4375,-1,0
336721852189,0.375,-1,0.0625
336721868725,1.3125,0.1875,0.125
336721889814,1.0625,0.5,0
336721912244,0.875,0.1875,-0.4375
336721928752,0.8125,-1,0
336721949807,1.9375,0,0.9375
336721972322,2.25,0.5625,2
336721988690,0.9375,0.75,1.25
336722009842,0.25,0.9375,0.0625
336722032264,1.0625,0.5625,0
336722048755,-1.1875,-0.8125,0.3125
336722069785,-1.875,-0.125,-0.5
336722092291,-2.125,-0.375,-1.5625
336722108722,-2.375,-1.4375,-2.375
336722131212,-4.4375,-1.625,-2.5
336722152303,-2,-3.1875,-0.5
336722168739,-2,-3.1875,0.0625
336722197963,-1.9375,-1.3125,-0.5625
336722212264,-2.5,-2.0625,-0.125
336722228683,-0.875,-4.3125,-1.9375
336722251172,-8.5,-6.4375,-4.8125
336722272300,-9.25,-7,-4.5625
336722288687,-0.9375,-6,-2.9375
336722311128,1.8125,-5.9375,-2.1875
336722332382,-1.0625,-7.3125,-1.9375
336722348681,0.6875,-6.625,-1.9375
336722371237,2.5,-3.8125,-1.25
336722392288,2.875,-1.4375,-1.0625
336722408802,0.6875,0.1875,-0.3125
336722431238,-0.3125,2.3125,1
336722452302,0.25,3.8125,3.125
336722468678,0.4375,5.1875,1.5
336722491246,0.5,5.0625,0.6875
336722512271,-1,4.3125,1
336722528777,-1,3.4375,2.3125
336722551174,-0.125,1.8125,1.8125
336722572228,-1,-0.75,1.8125
336722588734,-2.625,-1.625,-0.3125
336722611186,-1.9375,0.0625,-0.625
336722632286,-0.3125,0.875,0.9375
336722648779,-1.5,-0.25,0.8125
336722671254,-1.5,-0.0625,-0.1875
336722692290,0.4375,0.8125,-0.9375
336722708782,0.75,-0.4375,0.0625
336722731251,-1.125,0.0625,1.1875
336722752324,-0.875,0.3125,0.25
336722768714,-0.5,1.4375,-0.5625
336722791151,-0.75,0,-0.5
336722812337,0.75,-1.6875,0
336722828711,0.0625,-0.8125,0.1875
336722851259,0.75,1.375,-1.75
336722872334,2.0625,12.5625,-2.0625
336722888757,6.0625,20.75,-0.8125
336722911199,-1.1875,12.1875,7.6875
336722932332,-11.6875,7.1875,4.75
336722948752,-2.9375,7.75,1.125
336722971264,12.25,5.4375,3.125
336722992325,6.5,3.5,2.375
336723008004,-4.625,0.9375,-1.0625
336723030532,-5.1875,-3.5625,-0.375
336723052975,-1.5,-6.8125,1.3125
336723067988,-2.375,-3.0625,-1
336723090425,0.125,-0.0625,-3.875
336723113035,3.3125,-1,-4.9375
336723127984,-3,-8,-7.4375
336723150507,-11.5,-6.3125,-6.3125
336723173009,-3.1875,-3.375,-7.9375
336723187991,-5.8125,-1.0625,-5.8125
336723210443,-5.375,0.5625,-5.9375
336723233044,-7,-4.1875,-4.75
336723249446,-0.8125,-7.75,-5.125
336723270504,-0.3125,-4.8125,-4.1875
336723292973,-1.1875,-1.375,-1.75
336723309365,-1.9375,-1.25,0.5
336723330614,-2.3125,0.375,-1.125
336723352950,-3.5625,1.375,-3
336723369330,-2.0625,1.625,-1.6875
336723390541,-0.875,3.125,0.875
336723413084,-2.375,2.5625,3.375
336723429446,-0.4375,1.4375,2.4375
336723450509,-0.125,-0.25,1.125
336723472992,-0.125,-1.25,1.1875
336723489455,-0.875,-1.25,2.0625
336723510494,-0.875,-0.625,2
336723533024,0.0625,1.0625,1.125
336723549440,1.8125,2,0.875
336723570503,1.625,3.125,1.3125
336723592989,2.3125,3.5625,2.4375
336723609411,0.9375,4.0625,3.5
336723630642,4.375,6.25,3.9375
336723653074,6.625,8.25,7.8125
336723669468,6,11.75,5.3125
336723690442,1.75,7.5,4.8125
336723713075,1.1875,1.0625,3.5
336723729415,-0.1875,0.6875,-1
336723750593,-2.3125,-0.3125,-3.0625
336723773022,-7.1875,-0.4375,-0.1875
336723789405,-4.5,0,1.0625
336723810507,-2.625,-0.125,-0.3125
336723833149,-0.125,-1.6875,-1.75
336723849405,-1.9375,-3.3125,-1.875
336723870578,0.0625,-4.875,-0.5
336723893050,-0.125,-4,0.1875
336723909480,-1.125,-3.375,-0.375
336723930553,-0.4375,-0.375,-1.625
336723953037,0.25,0.6875,-1.9375
336723969486,0.75,0,-0.9375
336723990507,1.25,-0.9375,-1.25
336724013012,1.5,-2.4375,-2.0625
336724028775,2,-3.875,-4.125
336724050541,-3.9375,-5.0625,-5.4375
336724073034,-4.4375,-6.5625,-3.875
336724088787,-2.6875,-6.875,-2.6875
336724110491,-3.9375,-7.1875,-1.5
336724133021,-2.6875,-4.8125,-1.75
336724148734,-0.375,-4.3125,-2.3125
336724171994,-0.0625,-0.9375,-0.4375
336724193120,2,1,1.9375
336724208837,-0.3125,1.875,0.6875
336724231935,-1.9375,2.75,-0.6875
336724253124,0.5625,3,0.6875
336724268810,1.4375,3.5,1.6875
336724291970,-1,4.8125,2.0625
336724313033,-1.125,3.0625,3.25
336724328782,0.8125,4,3.3125
336724352020,1.875,4.5,2.0625
336724373089,1.5,2.3125,3.5625
336724388800,0.8125,3.0625,3.125
336724411941,1,4.9375,2.125
336724432982,2.3125,3.5625,4.3125
336724448831,4.3125,1.375,4.6875
336724472034,-0.6875,2.25,-0.5
336724493083,-2.1875,0.75,-3.3125
336724508756,0.4375,-2.6875,-3.5625
336724531998,-4.375,-5.25,-4.0625
336724553056,-2.9375,-5.625,-4.375
336724568933,-2.0625,-5.6875,-6.125
336724591997,-2.25,-8.25,-2.75
336724613681,-0.375,-6.75,-2.4375
336724628810,-1.75,-3.8125,-2.5625
336724651991,0.6875,-1.9375,-2.5625
336724673050,-1.0625,-3.0625,0
336724689001,0.4375,-2.125,0.8125
336724712013,1.3125,0,1.75
336724733105,0.9375,1.5625,2.9375
336724748977,2.0625,0.6875,4.4375
336724772127,2.4375,0.9375,4.1875
336724793059,0.5,1.4375,3.1875
336724808807,-1,0.125,2.6875
336724832064,-0.3125,0.625,0.625
336724853252,-2,-0.3125,1.0625
336724868851,-0.1875,-0.9375,1.125
336724891966,0.6875,-0.1875,0.625
336724913057,-1.5625,-0.125,-0.375
336724928814,-0.125,-0.8125,0.625
336724951308,0.9375,0,0.1875
336724973054,0,-0.8125,0.6875
336724988807,1.3125,-1.375,-0.3125
336725011297,0.375,-0.25,-1.625
336725033038,0.5625,-1.6875,0.5
336725048867,1.625,-2.375,1.3125
336725071348,-0.375,-0.1875,-0.125
336725093132,-1.375,0.875,-0.875
336725108875,0.1875,0.375,-0.125
336725131355,1.8125,-0.3125,0.6875
336725154596,0.75,-1.875,1.0625
336725168835,1.0625,-1.0625,0.6875
336725191360,1.125,1.375,-0.5625
336725214462,0.4375,1.1875,-0.5625
336725228920,1,-0.75,0.3125
336725251404,-0.625,-0.125,-0.1875
336725274557,0.3125,0.5,-1.0625
336725288843,0.375,0.5625,-0.9375
336725311320,0.625,-0.1875,-0.5
336725334606,0.5625,-0.375,-0.9375
336725348832,-0.1875,-0.1875,-1.3125
336725371382,0.5,-0.125,-1.1875
336725394580,0.9375,-0.625,-0.25
336725408866,1.4375,0.6875,0.3125
336725431353,1.6875,2.125,-0.25
336725454632,1,1.125,0.3125
336725468782,0.625,1.1875,0.6875
336725491383,2.3125,2.25,0.875
336725514561,3.1875,2.9375,1.375
336725528863,2.125,2.125,0.9375
336725551342,1.75,0.6875,0.6875
336725574566,1.875,1.5625,0.4375
336725588842,4.4375,2.125,0.8125
336725611261,3.25,1.0625,1.375
336725634574,2.8125,0.4375,1.875
336725655619,4.375,0.25,3.125
336725671418,5.3125,1.25,3.125
336725694564,1.8125,1.5,2.5
336725715698,0.1875,1.625,1
336725731325,0.8125,1.875,0.5625
336725754534,0.6875,2.5625,0.5
336725775533,0.4375,2,1.5
336725791311,0.5,2.3125,1.1875
336725814567,1.0625,2.8125,0.0625
336725835623,1.4375,1.5,0
336725851347,-0.125,0.5625,0.375
336725873847,0.5625,1.375,1
336725895524,2.0625,2.4375,1.1875
336725911306,-0.4375,2.6875,-0.5
336725933888,-2.5625,1.8125,-1.0625
336725955629,-1.8125,2.125,-1.1875
336725971411,-2.0625,1.375,-0.75
336725993926,-1.625,-0.3125,-0.75
336726015600,-2.8125,-2.4375,-1.5
336726031346,-1.6875,-3,-1.9375
336726053886,-0.125,-2.375,-1.1875
336726077033,-0.5625,-2.5625,-0.0625
336726099581,-1.3125,-2.1875,0.1875
336726104928,-1,-1.375,-0.375
336726127463,-0.625,-0.4375,-0.5
336726150624,-1.4375,-0.375,0.0625
336726164955,-0.9375,-1.125,-0.375
336726187447,-1.4375,-4.75,-4.5
336726210550,-10.6875,-8.0625,-8.125
336726224963,-9.3125,-5.375,-4.625
336726247432,-0.5625,-4.625,-2.6875
336726270670,-4.5,-6.6875,-2.75
336726286374,-3,-6.75,-3.75
336726307525,0.3125,-5.625,-2.625
336726330646,1.625,-3,-2.0625
336726344985,-1.6875,0.0625,-1.6875
336726367414,-3,3.5,-0.6875
336726390603,-1,10.3125,-2.0625
336726413149,-2.9375,22.6875,-8.5625
336726427396,-2.0625,29.9375,-10.4375
336726450668,-1.3125,28.5,-1.5
336726465027,-5.5625,14.75,10.25
336726487431,0.75,9.25,13.875
336726510583,9.625,7.25,10.0625
336726524952,6.8125,5.4375,1.875
336726547440,-1.125,0.3125,1.75
336726570599,-1.8125,-4.75,4.875
336726584982,-4.5625,-2.625,7.5
336726607429,-4.75,3.0625,6.4375
336726630630,-0.8125,8.375,6.1875
336726644987,1.6875,8.5625,7.4375
336726667492,1.3125,6.125,7
336726690626,1.6875,1.8125,6.375
336726704937,1.3125,-0.6875,3.9375
336726727440,2.625,2.25,3.875
336726750657,3.1875,14.5625,4.875
336726764989,-0.75,18.6875,8.6875
336726787392,-0.5,16.0625,5.875
336726810608,3.3125,10.4375,-11.0625
336726825068,-11.8125,-1.0625,-18.125
336726847490,-5.125,-8.875,-12.3125
336726870609,-0.375,-5.9375,-1.1875
336726884993,1.3125,-1.3125,6.125
336726907466,-3.875,1.5625,5.75
336726930576,-1.5625,4.375,0.625
336726953122,3.8125,6.5,-1.875
336726967519,3.75,5.25,-2.6875
336726990778,-0.8125,6.25,-1.8125
336727004963,1.6875,2.5625,-1.1875
336727027446,2.1875,-0.875,-2.0625
336727050047,-2.375,-6.3125,-1.9375
336727065033,-2.125,-2.5625,0.875
336727087421,1.6875,5.4375,0.5
336727110001,-0.5,8.8125,2.625
336727125030,-3.9375,6.5,0.5625
336727147540,-0.875,-1.3125,-10.1875
336727170042,-11.25,-13.6875,-17.8125
336727184953,-16.1875,-13.875,-13
336727207537,0.625,-3.5,1.125
336727229962,8.4375,-2.1875,5.875
336727245062,-12.375,-2.1875,6.25
336727267503,-11.1875,-3.875,1.4375
336727289971,3.75,-4.8125,-1.75
336727304922,-0.1875,-5.125,-2.9375
336727327597,-3.1875,-4.5,-4.1875
336727349970,-3.0625,-2.5625,-1.3125
336727365058,0.8125,-2.1875,5.5625
336727387603,1.6875,0.625,9.125
336727410089,4.125,5,9.25
336727425085,5.5,4.4375,0.125
336727447466,-4.9375,-4.3125,-10.3125
336727470036,-9.9375,-7.4375,-8.75
336727485049,-1.0625,-2.5625,3.0625
336727507658,8.875,-2.1875,11.8125
336727530120,-2.625,-3.75,12.4375
336727545219,-2,-1.1875,5.5625
336727567516,5.375,1.0625,0.375
336727589974,2.25,0.1875,0.5625
336727604998,0,-1.875,4.375
336727627498,-1.4375,1.9375,5.3125
336727650019,0.125,6,3.3125
336727664994,2.3125,1.8125,1.9375
336727687515,2.125,-0.5,-2.25
336727709971,-2.5625,0,-1.9375
336727725059,2.25,-2.25,2.6875
336727747492,1.5625,-4.4375,4.1875
336727770033,-3.8125,-2.3125,1.5625
336727786392,0.125,-1.4375,-0.5625
336727807610,2.3125,-0.0625,-0.6875
336727830159,1.125,-1.9375,-0.0625
336727846469,-1.1875,-4.3125,1.75
336727867482,0.375,-2.625,1.6875
336727890039,3.5625,3,1
336727906437,3.0625,3.25,2.625
336727927544,-0.1875,1.1875,3.75
336727950067,-0.5,0.625,0.8125
336727966368,-1.4375,0.875,-0.5625
336727987606,0.6875,2.6875,0.6875
336728009978,1.5625,3.4375,1.8125
336728026449,-1.625,0.4375,1.3125
336728047557,-0.0625,-1.3125,0
336728070020,1.5,-1.75,0.25
336728086519,1.375,-1.25,1
336728107550,0.625,-2.0625,1.6875
336728131433,0.5,-1.75,1.375
336728146433,0.8125,0.625,0.4375
336728167520,1.0625,1.3125,0.625
336728190041,0.9375,2.25,0.875
336728206517,0.25,2.875,0.25
336728227503,1.125,3.875,-0.8125
336728250028,1.4375,2.6875,-0.375
336728266521,-0.5625,1.8125,-0.0625
336728287530,-1.9375,0.4375,0.125
336728310005,0.875,-1,0.5625
336728326582,1,-0.5,0.9375
336728347565,0.6875,-0.25,0.8125
336728370107,0.0625,-0.3125,-0.1875
336728392586,0.8125,0.125,-0.0625
336728407530,0.75,1.8125,-0.1875
336728430070,1,2.3125,-0.375
336728446601,-0.375,0.75,1.0625
336728467602,0.1875,1.375,0.25
336728490062,0.25,3.1875,-0.8125
336728506553,1.8125,1.875,-0.25
336728527615,1.0625,0.5625,0.5
336728550104,2.25,0,1.125
336728566486,5.375,3.125,1.375
336728587503,5.3125,5.5,0.25
336728609955,6.875,6,-0.25
336728626497,9.6875,6.125,0.625
336728647483,9.9375,6.125,3.8125
336728669994,4.25,5.5625,4.5
336728686501,3.3125,1.625,4.375
336728707615,6.4375,-2.9375,2.1875
336728730034,2.9375,-6.875,-0.9375
336728746612,-0.5625,-8.3125,-2
336728769017,-6.75,-8.75,-0.5625
336728790113,-7.9375,-10.3125,-0.625
336728806553,-4.375,-11.6875,-1.8125
336728829003,-2,-7.4375,-1.875
336728850113,-1.5625,-5.875,-1
336728866462,-1.8125,-5,0.3125
336728889050,-1.9375,-2.375,0.4375
336728909988,-1.0625,-0.1875,-1.3125
336728926540,-1.125,2.125,-2.25
336728948998,-2.5625,1.8125,-1.5
336728970088,-2.125,3.0625,-0.875
336728986531,-1.5,2.0625,0
336729009060,0.75,0.6875,-0.6875
336729030104,0.1875,0.375,0
336729046626,1.4375,0.5625,0.75
336729068981,0.0625,-0.625,0.9375
336729090098,0.5,-2.0625,0.6875
336729106512,2.125,-0.6875,0.25
336729128951,1.625,0.25,0.5
336729145415,0.9375,-1,1.125
336729166514,-0.0625,-0.875,0.6875
336729188987,2.5,0.5625,0.5625
336729205508,2.25,2.4375,0.0625
336729226508,1.125,2.125,-0.6875
336729248158,0,-0.25,0.0625
336729270689,0.8125,-0.125,0.5625
336729285685,3.375,2.375,1.1875
336729308201,1.4375,3.75,1.625
336729330686,-1.5625,2.625,1.375
336729345689,-0.6875,0.625,-0.25
336729368163,0.625,-0.125,0.4375
336729390687,1.8125,0.3125,1.25
336729405655,-0.375,-0.8125,1.25
336729428197,-0.5,-0.8125,0.1875
336729450693,1.375,0.875,0.4375
336729465697,2.375,1.0625,0.6875
336729488184,2.6875,1,0.75
336729510713,0.75,-0.3125,-0.5625
336729525666,0.0625,-0.5,-1.5
336729548250,1.4375,0.375,-1.625
336729578870,1,-0.875,-0.5
336729585677,-0.5,-2.0625,-0.25
336729608206,0.25,-2.0625,-0.375
336729630688,0.375,-1,-0.375
336729645718,1.25,-0.25,-0.5
336729668221,0.1875,-0.25,-0.75
336729690693,-0.5,0.6875,-1.75
336729705713,-0.9375,0.875,-1.5
336729728158,-1.0625,1.4375,-0.6875
336729743968,-1.1875,1.25,-0.3125
336729765683,0.625,3.5,-1.9375
336729788189,-1.0625,4.5,-2.4375
336729804022,-0.4375,3.5625,-1.5
336729825649,-0.125,1.6875,-1.1875
336729848207,0.8125,-0.125,-0.9375
336729864015,1.6875,2.75,-1.125
336729887168,2.1875,1.75,-0.5625
336729908210,0.6875,0.0625,-0.3125
336729923993,0.25,-1,-0.75
336729947147,1.9375,2.375,-1.75
336729968160,0.625,3.4375,-1.8125
336729984025,-1.625,1.8125,-1.5625
336730007179,-0.8125,0.75,-1.8125
336730028208,0.1875,2.9375,-3.1875
336730044027,-1.9375,2.0625,-3.3125
336730067178,-2.4375,0.0625,-2.1875
336730088212,-1.625,0.125,-1.9375
336730104018,-0.125,3.1875,-1.1875
336730127180,0.125,4.0625,-0.625
336730148322,-0.375,2.5625,-1.25
336730164048,1.125,-0.3125,-1.3125
336730187189,1.6875,2.3125,0.0625
336730208195,5,8.375,2.4375
336730223958,5.625,8.4375,3.875
336730247181,3.25,5.1875,2.4375
336730268305,1.125,-0.5,0.0625
336730284058,-0.75,-1.9375,-2
336730307154,-1.625,-0.375,-1.625
336730328291,-0.4375,-2.3125,1.5
336730344038,-0.1875,-3.6875,3
336730367121,0,-3,2.125
336730388311,-1.875,-0.125,-0.625
336730404101,-5.25,0.4375,-2.4375
336730427205,-6.25,1.3125,-3.3125
336730448228,-2.25,0.0625,-1.8125
336730464042,-0.9375,-1.3125,0.1875
336730487182,-1.4375,0.9375,-0.8125
336730508328,-1.125,1.3125,-1.875
336730524112,-2.0625,-0.1875,-2.1875
336730547235,-1,-2.0625,-1
336730568283,-0.1875,-1.1875,-0.0625
336730584057,1.4375,0.5,0.6875
336730607209,0.4375,1.125,1.1875
336730628250,-1.6875,0.25,-0.1875
336730644083,-1.25,1,-0.5625
336730666594,-1.0625,1.3125,-0.5625
336730688318,-2.9375,0.25,-0.3125
336730704125,-2.4375,-1.0625,-0.3125
336730726565,-2.625,-0.4375,-0.375
336730748357,-6.25,-1.4375,-0.125
336730764091,-5.5625,-2.125,-1.5
336730786563,-2.1875,-3.0625,-1.125
336730809707,1.3125,-2.25,0.6875
336730824068,2.5625,-1.875,3.5625
336730846599,3.8125,-2.3125,3.875
336730869755,2.625,-3.625,2.1875
336730884081,1.875,-4.375,-0.5
336730906530,-0.75,1.625,-3.1875
336730929737,-0.9375,4.1875,-4.875
336730944114,-4.25,1.875,-3.9375
336730966567,-3.3125,-0.5,-3.25
336730989776,-1,-0.5625,-1
336731004087,-0.25,-0.4375,0.125
336731026594,-2.0625,-1.625,0.1875
336731049737,0.6875,-3.75,-0.8125
336731064100,-9.375,-6.9375,-6.5625
336731086508,-39.125,-3.125,-5.1875
336731109752,-29.4375,0.3125,-3.5625
336731130838,-0.625,18.1875,-7.9375
336731146591,-0.9375,36.0625,-17.25
336731169764,-13.125,40.8125,-36.8125
336731190874,-9,37.75,-51.4375
336731206623,1.375,27.0625,-64.5
336731229736,0.1875,17.0625,-68.1875
336731250782,-2.6875,13.9375,-65.9375
336731266611,1.625,14.625,-62.125
336731289750,2.1875,10.25,-56.625
336731310765,0,2,-49.25
336731326581,11.1875,-4.125,-42.5
336731349734,14.9375,-5.3125,-34.8125
336731370828,8.75,-0.0625,-23.4375
336731386609,8.75,-2.25,-6
336731409723,16.125,-5.4375,3.125
336731430840,9.9375,-6.3125,2.3125
336731446596,2.75,-5.375,-1.875
336731469754,2.5625,-3.5625,-4.5
336731490814,-0.4375,-3.8125,-4.1875
336731506588,-2.8125,-4.25,-4.6875
336731529789,-1,-0.8125,-7.375
336731558345,-4.125,1.125,-9.0625
336731566643,-5.1875,0.875,-6.625
336731589084,-3.125,1.9375,-2.875
336731612214,-0.75,0.1875,3.5
336731626620,1.3125,2.3125,7.125
336731649123,1.5,6,9.375
336731672284,-1.625,7.0625,12
336731686597,12.125,3.375,19.1875
336731709114,18.0625,-5.8125,30.375
336731730810,21.5,-13.125,37.75
336731746599,25.1875,-18.0625,41.0625
336731769119,21.5625,-24.3125,41.8125
336731792296,21.625,-24.1875,35.4375
336731806575,16.8125,-20.1875,31.6875
336731829167,13,-7.3125,23.5625
336731852317,1.125,-0.6875,18.5
336731866630,-6.3125,-2.8125,10.4375
336731889108,-8.875,-3.1875,-2.8125
336731912253,-2.1875,0.5625,-13.125
336731926621,2,3.8125,-14.875
336731949171,-1.125,8,-13.25
336731972303,-5.3125,8.5625,-13.5625
336731986629,-1.375,11.6875,-16
336732009160,2.125,17.9375,-20.8125
336732032260,9.9375,17.5,-25
336732053259,-4,13.5,-28.4375
336732069088,-21.75,13,-33.0625
336732092294,-18.625,17.4375,-32.75
336732113386,-10.4375,15.8125,-33.25
336732129137,-15,11.875,-32.1875
336732152330,-22.0625,8.625,-25.5
336732173360,-11.0625,1.125,-9.75
336732189111,19.9375,-2.5,-1.25
336732212250,20.6875,-2.25,5.875
336732240876,-3.5625,-4.875,7.5625
336732249118,2.5,-6.5,6.125
336732272329,6.875,-6.3125,3.5
336732293362,3.5,-5.5,-1.5
336732309105,-2.125,-1.25,-5.375
336732332313,-2.8125,3.75,-2.3125
336732353972,-11.3125,8.5,-0.625
336732368380,0.9375,11.0625,0.375
336732382751,-10.125,9.125,0.0625
336732405206,-4.5625,0.5625,1.4375
336732428353,2.75,-7.6875,3.25
336732442688,-1.0625,-11.875,7.1875
336732465168,4.4375,-12.375,10.1875
336732488352,9.5,-6.875,10.875
336732502702,3.625,-2.3125,5.875
336732525161,-2.1875,1.875,1.8125
336732556512,-8.375,1.3125,-1.25
336732562703,-5.5,2.25,-8.75
336732585199,-5.125,0.6875,-9.5625
336732608300,-5,-0.25,-8.25
336732622732,-5.4375,-1.5,-5.9375
336732645310,0.125,0.4375,-1.1875
336732668437,7.375,1.125,1.4375
336732682741,1.6875,-2.4375,1.8125
336732705261,-0.25,-5.6875,0.875
336732728409,0.125,-9.625,4.4375
336732742766,0.75,-11.9375,9.375
336732765213,5.1875,-10.5625,12.8125
336732788336,4.25,-9.9375,14.4375
336732802718,3,-5.25,11.5625
336732825208,-0.0625,1.3125,10.125
336732856518,-0.5625,10,7.5
336732862692,-4.5625,11.8125,10
336732885131,-6.125,7.5625,4.5625
336732908356,-7.625,2.6875,-5.8125
336732922650,-8.25,-3.375,-2
336732945169,-2.75,-7.75,10.3125
336732968355,-8.625,-8.75,17.375
336732982744,0.375,-6.5,20
336733005222,5.75,-7.0625,20.5625
336733028404,0.0625,-8.1875,24.6875
336733042760,-0.125,-9.6875,30.125
336733065273,-5.125,-13.3125,35.125
336733088436,-4.5,-15.6875,36.1875
336733102756,-3.6875,-12.75,32.9375
336733125299,-0.3125,-6.875,27.75
336733148449,-0.75,-1.4375,24.0625
336733162793,-0.625,-2.125,22.6875
336733185235,-0.3125,-3.625,20.625
336733208444,-1.0625,-4.9375,16.875
336733222700,-2.5,-5.6875,11.5625
336733245218,-1.125,-6.375,7.875
336733268358,0.8125,-4.375,3.8125
336733282740,-0.8125,-0.625,0.0625
336733305196,-1.625,-0.25,-4.125
336733328461,-5.5,-1.125,-6.8125
336733342749,-3.9375,-2.75,-7.5625
336733365260,-2.1875,-4.375,-6.625
336733388434,-1.375,-4.1875,-4.75
336733402697,1.5,-4.4375,-1.8125
336733425317,3.25,-4.8125,-0.0625
336733440213,1.125,-4.5625,1.5
336733462753,1.9375,-3.5,2.3125
336733485262,4.375,-3.125,1.875
336733501628,0.375,-3.125,-0.4375
336733522793,-0.6875,-0.6875,-2.6875
336733545242,0.3125,2.6875,-3.875
336733561663,-3.9375,5.25,-4.25
336733582780,-5.9375,15.6875,-10.9375
336733605221,1,30.125,-22.8125
336733628410,10.875,45.25,-35.3125
336733642791,30.1875,65.375,-44.4375
336733665208,59.75,82.9375,-69.5
336733687799,54.4375,99.1875,-94.25
336733702714,53.0625,120.5,-116.188
336733725287,69.125,146.875,-138
336733747777,79.3125,162.562,-168.938
336733762820,38.625,161.75,-190.812
336733785278,-2.875,163.438,-196.875
336733807761,-5,186,-197.688
336733822695,0.6875,205.438,-196.438
336733845314,-24.375,215.812,-181.625
336733867831,-64.6875,213.562,-152.75
336733882780,-76.5,209,-112.812
336733905262,-54,203,-70.3125
336733927904,-24.5,189.312,-31.5
336733942727,-2.5,152.625,4.9375
336733965264,21.625,93.3125,58.3125
336733987813,44.4375,36.75,111.188
336734002758,59,-14.8125,152.875
336734025269,61.8125,-53.8125,185.375
336734047795,62.625,-95.25,206.812
336734062755,60.25,-126.75,218.312
336734085318,51.625,-149.562,216.125
336734107827,36.9375,-155,190.438
336734122750,23.875,-155.625,149.375
336734145291,12.75,-153.938,110
336734167853,4.3125,-152.5,69.0625
336734182928,-1.5625,-129.062,19.125
336734205210,-20.875,-92.1875,-37.5
336734227758,-63.375,-61.6875,-86.4375
336734242804,-81.625,-40.5,-133.938
336734265275,-93.1875,-10.875,-181.875
336734287779,-115.75,5.4375,-220
336734302737,-143,-2.1875,-243.375
336734325364,-161.438,-11.625,-250.438
336734347826,-171.25,-15.1875,-234.875
336734362858,-143.812,-34.9375,-171.438
336734385254,-126.312,-70,-93.6875
336734407796,-101.875,-96.625,-37.375
336734424207,-43.4375,-130.125,-14.75
336734445323,6.0625,-182.562,-4.6875
336734467814,28.125,-234.188,46.9375
336734484239,95.0625,-253.75,85.6875
336734505248,189.562,-222.312,115.875
336734527778,158,-169.938,132.938
336734544271,97.9375,-103.688,104.938
336734565314,56.875,-7.375,47.4375
336734587832,9.8125,97.875,-30.375
336734604207,-56.625,190.188,-104.688
336734625344,-117.312,255.812,-152.875
336734647795,-166.75,299.5,-160.625
336734664207,-206.438,310.625,-136.438
336734685282,-211.688,302.25,-92.0625
336734707853,-169.562,265.062,-36.3125
336734724266,-85.6875,190.625,32.375
336734745316,21.5625,104.438,91.0625
336734767827,121.25,37,136.188
336734784263,179.375,-11.3125,175.062
336734805315,198.375,-48.1875,210.062
336734835964,178.875,-81.6875,236.562
336734850303,154.625,-115.375,257.5
336734865341,125.188,-153.375,264.625
336734887841,89.6875,-159.75,241.688
336734905742,71.4375,-120.688,176.812
336734925333,60.125,-62,83.5
336734947823,52.625,25.8125,7.625
336734964258,152.812,101.062,-28.9375
336734985338,61,118.125,-69.5625
336735007854,-172.5,126.188,-131.5
336735024279,-176.625,147.562,-206.625
336735045360,-138.25,146.125,-260.438
336735067809,-144.562,121.75,-284.188
336735084238,-162.812,88.3125,-272
336735105260,-174.75,49.3125,-235.688
336735127802,-167,10.4375,-168.5
336735144273,-120.5,-60.75,-84.9375
336735165331,-39.625,-120.5,-19.4375
336735187819,16,-195.562,13.5625
336735204260,76.75,-253.875,72.6875
336735225331,147.812,-292.562,135.375
336735241782,187.062,-297.375,187.062
336735271729,170.938,-281.625,209.438
336735285332,134.688,-238.938,186.688
336735301708,113.375,-136.625,107.062
336735324294,171,-18,42.875
336735345330,320.188,20,16.1875
336735361778,21.9375,16.1875,-17.5625
336735384266,-179.25,59.8125,-103.625
336735406714,-194.812,118.562,-184.625
336735429225,-157.188,141.5,-226.25
336735444236,-160.75,130.25,-223.938
336735468227,-199.688,124.812,-167.312
336735488511,-198.688,104.812,-80.875
336735504854,-144.188,28,-24.5625
336735526623,-98.9375,-36.9375,14.375
336735549926,-50,-102.5,-21.0625
336735563536,79.0625,-183.812,-8.9375
336735585768,125.062,-239.125,46.25
336735608525,150,-245.875,80.4375
336735623507,166,-213.312,92.875
336735646027,100.125,-172.938,90.5
336735668529,77.8125,-147.875,68.5625
336735683540,77.1875,-99.0625,42.75
336735706020,20.375,-61,5.5
336735728561,-39.0625,-32.375,-29.9375
336735743539,-83.875,-13,-51.375
336735765999,-125.75,-0.0625,-57.5
336735788514,-140.75,19.8125,-50.1875
336735803491,-125.5,51.1875,-40.9375
336735833510,-104.438,70.5,-31.375
336735848512,-70.8125,59,-25.75
336735863546,-118.562,32.4375,0
336735887557,-34.375,39,19.375
336735908513,90.8125,74,47.3125
336735923533,112.5,113.25,58.6875
336735946022,38.8125,139.188,76.5625
336735968511,-16.0625,147.938,96
336735983460,14.5625,152.25,102.375
336736005971,50.5625,157.5,94.0625
336736028510,63.75,150.562,83.6875
336736043326,70.625,137.312,84.8125
336736065984,74.875,118.625,82.0625
336736088460,73.3125,100.625,71
336736103544,74.1875,89.9375,54.5
336736133601,82.4375,87.5625,23.625
336736149957,78.3125,111.5,-47.5
336736163617,67.0625,139.688,-112.188
336736186049,52.1875,121.125,-147.25
336736201760,-6.4375,85.125,-145.938
336736225036,-90.3125,62.6875,-137.812
336736246032,-122.75,59.3125,-129
336736261849,-104.625,54.8125,-110.625
336736283596,-75.1875,39.0625,-85.75
336736306108,-39.75,5.4375,-53.6875
336736321783,-14.0625,-49.375,-35.5625
336736343534,15.5,-112.625,-12
336736366009,67.25,-152.188,32.9375
336736381790,94.0625,-176.312,85.6875
336736403538,127.625,-184.625,120.5
336736426071,103.375,-181.812,138.875
336736441782,67.6875,-168.125,131.375
336736464946,85.875,-140.75,102.875
336736486064,88.9375,-102.625,61.4375
336736501811,95.125,-52.4375,10.5625
336736539181,59,-23.5625,-14.0625
336736546049,-39.25,-13.625,-41.9375
336736561771,-94.6875,4.125,-76.125
336736584966,-105.812,21.25,-109.812
336736606061,-102,27.4375,-133.25
336736621836,-107.938,24.625,-141.75
336736644938,-100.562,14.0625,-129.188
336736666028,-75.375,-11.6875,-103.5
336736681856,-54.5625,-44.375,-73.9375
336736705032,-36.4375,-72.5625,-48.5625
336736726077,-3,-98.875,-28.375
336736741827,26.375,-123.375,-2
336736764985,44.25,-149.312,27.4375
336736786072,52.125,-168.438,57.75
336736801853,61.125,-171.875,74.75
336736831039,67,-162.375,82.375
336736846075,62.5,-156.75,83.875
336736861824,47.1875,-149.812,80.3125
336736884998,10.125,-122.375,64.0625
336736906075,-19.0625,-95.125,43.8125
336736921829,-27.6875,-57.75,23.4375
336736945025,-7.1875,-10.75,-5.875
336736967502,-35.9375,11.375,-34
336736981898,-116.688,8.5,-45.6875
336737005005,-128.375,22.625,-23.5
336737026131,-36.0625,35.5625,-17.625
336737041834,38.9375,59.5,-18.875
336737064992,62.8125,89.875,-16.25
336737087578,56.9375,114.688,-12.375
336737108609,58.1875,138,-8.0625
336737124987,52.5625,156.875,-8.5
336737146080,29.8125,177.438,-16.3125
336737161804,10.5,209.625,-27.125
336737184955,6.1875,233.562,-27.875
336737206127,-4.375,248,-21.5
336737221867,-24.5,258.375,-13.625
336737244327,-36.1875,259.75,1.125
336737266096,-35,245.25,26.625
336737281898,-16.875,221.5,58.25
336737304338,-0.75,191.688,84.3125
336737326076,15.25,165.875,100.375
336737341848,45.375,136.125,120.812
336737364340,78.4375,103.062,141.688
336737386092,93.8125,70.5625,155.312
336737401864,100.562,41.25,166.125
336737424329,104.625,12.8125,178.875
336737447598,109.812,-17.9375,192.812
336737461860,110.188,-46.625,203.312
336737484356,111.312,-71.1875,214.812
336737515044,111.625,-90,221.438
336737521855,112.938,-116.188,228.438
336737552562,100.438,-130.312,234.75
336737567582,88,-134.938,246.938
336737588617,76.6875,-140.688,258.688
336737604372,65.8125,-143.25,268.688
336737627563,43.3125,-152,279
336737648613,42.125,-141.125,292.125
336737664326,49.8125,-118.062,281.75
336737687596,25.5,-84.1875,247.062
336737708639,-7.75,-67.4375,232.25
336737724396,-0.125,-47.75,224
336737747555,28.0625,-38,214.125
336737776091,6.3125,-34.75,195.75
336737784407,-33,-9.8125,143.188
336737807530,-22.0625,12.9375,82.5625
336737828553,-2.1875,15.75,30.6875
336737844381,-10,9.25,-17.625
336737867558,-21.6875,0.4375,-63.25
336737888659,-20.8125,-7.375,-99
336737904399,-26.6875,-18.75,-126.375
336737927549,-21.6875,-20.4375,-150.812
336737948552,-21.25,-13.8125,-180.062
336737964412,-35.5,1.625,-216
336737987610,-46.5625,12.5,-240.312
336738010075,-49.0625,15.5,-243.938
336738024329,-54,15.875,-242.938
336738047556,-71.8125,21.25,-242.375
336738068624,-87.125,25.1875,-248
336738084388,-102.125,25,-251.188
336738107602,-112.812,18.3125,-247.125
336738128531,-124.625,8.3125,-238.688
336738144347,-139.875,0.75,-230.688
336738167508,-148,-10.375,-216.75
336738188588,-155.562,-26.4375,-198.062
336738204333,-157.875,-41.875,-186.438
336738226827,-159.688,-57.125,-174.625
336738248559,-155.688,-71.0625,-155.5
336738264332,-130.375,-86.8125,-140.562
336738286830,-87.25,-102.875,-137.875
336738308585,-65.6875,-125.312,-146.375
336738324331,-74.875,-148.438,-151.5
336738346864,-83.9375,-158.688,-150
336738368611,-76.5,-150.25,-139.375
336738384333,-48.6875,-147.438,-132.25
336738406803,-35.25,-145.25,-124.125
336738430020,-31.3125,-134.938,-109
336738444356,-39,-114.688,-99.125
336738466857,-47.875,-97.75,-83.875
336738498953,-48.625,-86.625,-66
336738504537,-49.8125,-72.8125,-49.5625
336738526832,-44.875,-57.1875,-34
336738550025,-27.3125,-43.1875,-16.5625
336738571153,-9.4375,-27.8125,1.3125
336738586185,7.0625,-14.75,15
336738600403,13.875,-3.875,28.5625
336738622997,14.4375,9.1875,41.5625
336738646148,13.4375,22.125,53.5625
336738660431,10.5,35.125,65.75
336738682925,15.8125,47.3125,76.9375
336738706123,21.375,61.0625,86.75
336738720462,24.1875,73.625,95.6875
336738742919,25,84.9375,105.188
336738766063,27.9375,94.3125,116.875
336738780412,36.1875,101.062,126.25
336738802934,46.3125,107.25,133.938
336738826104,57,108.688,140.812
336738840437,70.3125,104.75,145.75
336738862915,83.1875,97.8125,150.562
336738886189,91.125,89.375,154.75
336738901824,94.6875,78,159.938
336738922942,99.6875,64.8125,161.625
336738946144,105.625,52.4375,157
336738960420,95.9375,39.4375,153.188
336738982971,82.5,26,153.5
336739014219,71.125,12.25,154.125
336739020453,63.1875,1.9375,152.438
336739042933,61.6875,-4.125,146.625
336739066084,58.9375,-10.6875,138.312
336739080445,58.25,-16.4375,129
336739103575,50.8125,-22.0625,125.062
336739126152,37.875,-27,117.562
336739140429,29.125,-32.1875,106.938
336739165058,24.5625,-33.25,93.375
336739186190,23,-30.75,78.625
336739200510,18.125,-29.3125,60.5
336739223637,8.75,-24.0625,43.875
336739246175,2.5,-20.25,25.625
336739260442,-6.875,-14.125,4.75
336739283608,-20.25,-7.625,-18.8125
336739306115,-36.1875,-2.1875,-40.3125
336739320501,-55.9375,2.625,-58.125
336739342965,-76.9375,8.875,-67.8125
336739366112,-88,15.8125,-67.625
336739382474,-91.9375,22.75,-60.4375
336739402961,-93.375,29.5,-48.5
336739426221,-85.3125,26.3125,-34.625
336739440504,-76.8125,15.0625,-16.4375
336739463036,-76.625,3.8125,0.3125
336739486139,-69.8125,-3.25,14.5625
336739500490,-56.9375,-9.5625,27.9375
336739522924,-52.875,-18.0625,39.4375
336739537973,-51.5,-29.0625,51
336739560444,-49.875,-32.375,59.3125
336739582969,-43.6875,-28.5,59.1875
336739598053,-45.5625,-24.875,53
336739620473,-48.625,-17.625,43.375
336739642990,-47.75,-12.625,37.5
336739658034,-45.375,-4.4375,29.125
336739680495,-47.625,3.8125,18.625
336739703099,-51.0625,11.3125,7.9375
336739718045,-47.9375,17.75,0.125
336739748643,-42.5,25,-5
336739762967,-38.625,27.625,-10.625
336739778025,-40.375,28.1875,-15.75
336739800473,-44.875,28.75,-16.875
336739822988,-43.9375,29,-14.375
336739838025,-42.25,28.4375,-10.8125
336739860546,-29.6875,26.3125,-11.5625
336739882992,-0.75,22.375,-17.5625
336739897970,15.3125,14.8125,-20.8125
336739920485,-9.6875,9.875,-17.125
336739943034,-17.75,5.3125,-11.9375
336739958006,-13.875,3.125,-4.875
336739980544,-9.4375,0.125,0.6875
336740003037,-5.0625,-2.625,3.8125
336740017955,0.6875,-6.1875,5.75
336740040543,8.6875,-4.5625,-1.125
336740063054,3.125,-2.4375,-2.1875
336740077981,0.1875,-1.1875,2.625
336740100621,-2.25,-2.625,7.8125
336740122946,-2.3125,-0.75,7.125
336740145451,-6.25,-0.1875,7.1875
336740160535,-2.75,-3.9375,8.6875
336740183073,4.3125,-1.875,3.4375
336740199534,-7.4375,0.6875,-1.75
336740220524,-9.25,-1,0.8125
336740243007,-4.25,-2.375,1.5
336740259413,-5.0625,2.6875,-2.375
336740280575,-5.6875,8.625,-4.375
336740304504,-4.0625,7.3125,-4.125
336740319473,-1.9375,2.4375,-1.8125
336740340532,0.9375,-0.25,2.875
336740363030,4.125,-0.875,4
336740379463,2.6875,-1.5,1.0625
336740400478,-2.125,0.8125,-4.0625
336740423010,-7.25,2.8125,-5.4375
336740439544,-9.25,3.4375,-4.25
336740460555,-6.875,2.375,-3.125
336740482997,-2.5,-0.375,-3.75
336740499498,-3.9375,0.25,-3.75
336740520534,-0.6875,1.125,-2.5
336740543018,-1,0.375,-0.375
336740559433,-0.8125,0.875,-0.9375
336740580536,-2.4375,2,-2
336740603026,-3.375,3.8125,-2.6875
336740619410,-4.9375,3,-0.75
336740640472,-2.25,0.5625,2.125
336740662978,0.8125,0.875,-0.5625
336740679521,-1.125,2.8125,-3.5625
336740700564,-4.5,2.75,-3
336740723006,-4.75,1.125,-0.4375
336740739514,-2.625,0.3125,0.8125
336740760541,-1.125,1.8125,-1.4375
336740783037,-1.6875,3.5,-2.9375
336740799546,-3.375,2.8125,-1.625
336740820602,-2.5,-0.3125,0.75
336740844498,-1.375,-0.8125,-0.5625
336740859534,-2.125,-1.3125,-1.8125
336740880616,-3.375,-1.625,-0.625
336740903032,-1.3125,-1.1875,0.3125
336740919611,-1.25,1.5,0.875
336740940587,-1.3125,1.8125,1.4375
336740963010,-0.75,0.375,3
336740979456,3,-0.4375,1.8125
336741000554,4.5,-1.125,1.8125
336741022994,5.125,-1.9375,0.875
336741039501,1.5625,-1.0625,-0.375
336741061955,-0.9375,-1,1.375
336741083011,-0.75,0.25,1.625
336741099539,-0.8125,0.375,-0.125
336741121949,-1,1.8125,-0.3125
336741143059,-1,2.625,-0.5
336741159546,-0.5,1.3125,-0.5625
336741182053,0.25,0.0625,-1.1875
336741203085,0.4375,0.0625,-1.1875
336741219464,0.0625,0.6875,-0.5
336741242056,-0.5625,1.125,-0.6875
336741263009,-0.8125,0.25,-0.375
336741279559,-0.25,0,0
336741301997,0.375,0.125,-0.6875
336741323021,-0.625,1,-0.4375
336741339535,-1.5,1.75,-0.4375
336741362046,-1.5,0.8125,-0.8125
336741383007,-1.1875,0.125,-0.8125
336741399523,-1.5625,0.0625,-0.375
336741422009,-1.5625,-0.4375,0.3125
336741443018,-0.75,0.5625,0.0625
336741459509,-0.9375,1.5,-0.25
336741481997,-1,0.625,-0.4375
336741502981,-0.375,0.6875,-1.1875
336741519522,-1.6875,0.875,-1.125
336741542014,-0.75,0.875,-1
336741562983,-1.625,1.4375,-0.5625
336741579503,-0.25,0.9375,-0.375
336741601932,-0.0625,-0.0625,-0.75
336741623047,-0.125,0.3125,-0.8125
336741639561,-0.8125,1.25,-0.0625
336741661928,-1.6875,1.125,0.1875
336741683088,-1.8125,0.5,0.375
336741698730,-0.1875,0.3125,-0.875
336741721193,-1.1875,0.875,-1
336741743818,-1.6875,1,-0.5625
336741758788,-2.6875,0.75,0.625
336741781209,-2.9375,0.1875,0.8125
336741803765,-4.3125,0.5,0.8125
336741818763,-3.0625,0.9375,-0.75
336741841245,-3.75,0.8125,-1.25
336741863715,-2.4375,0.4375,-0.6875
336741878751,-1.5,0.6875,-0.5
336741901251,-0.875,0.0625,-0.8125
336741923750,0.1875,-0.125,0.125
336741938808,0.625,0.0625,0.5625
336741961254,0.5625,0.0625,1
336741983781,0.3125,-0.9375,0.875
336741998753,0.1875,-1.0625,0.25
336742021265,-0.0625,-1.4375,-0.25
336742043698,-0.0625,-0.875,-0.625
336742058697,0.0625,0.625,-0.4375
336742081217,0,1.8125,-0.8125
336742103772,0.8125,0.8125,-1.25
336742118826,1.125,-0.0625,-0.3125
336742141230,1.5625,-0.5625,0.25
336742163814,1.6875,-0.5,0.5
336742180213,1.5,-0.625,0.1875
336742201270,-0.125,-0.3125,-0.3125
336742223811,-0.5625,-1,-0.4375
336742240140,-0.75,-0.375,-0.5
336742261226,-0.25,1.125,-0.3125
336742277010,-0.1875,1.875,-1.3125
336742300213,-0.5,1.25,-1.3125
336742321263,0.875,-0.25,-1.0625
336742343122,0.5,-1.125,-0.6875
336742360172,-0.3125,-0.4375,-0.25
336742381251,-0.5,-0.1875,-0.0625
336742397047,-0.8125,-0.3125,-0.0625
336742420251,0.125,0.25,-0.375
336742441262,0.625,-0.375,-0.75
336742457030,-0.3125,-0.1875,-0.375
336742480155,0.6875,-0.4375,-0.8125
336742501259,-0.125,-0.875,-2.125
336742516976,-2.625,-0.625,-1.625
336742540184,-2.3125,-0.375,-0.5625
336742562428,-1.75,0.4375,-0.25
336742577376,-0.6875,1.0625,-0.8125
336742600194,0,0.6875,-0.75
336742621250,0.5625,-0.625,-0.25
336742637025,0.625,-1,0.1875
336742660153,-0.1875,-0.625,0.25
336742681302,-0.5625,-0.1875,0.5625
336742697066,-0.3125,-0.25,0.125
336742720187,-0.0625,0.5625,0.125
336742741261,-0.1875,0.0625,0.25
336742758412,-0.6875,0.1875,0.6875
336742780213,-0.125,0.125,0.1875
336742807677,-0.5,-0.1875,0.25
336742817260,0,-0.1875,0.375
336742844442,0.8125,-0.9375,0.25
336742864999,0.25,-0.5625,0.5625
336742877876,0.375,-0.0625,0.375
336742900765,-0.1875,-0.3125,0.125
336742937435,0.25,-0.25,0.125
336742937494,0.375,-0.875,0
336742959582,0.125,-0.75,0.25
336742982897,-0.125,0.0625,0.3125
336742997117,-0.0625,-0.1875,-0.125
336743019554,-0.375,0.375,0.0625
336743043782,0.0625,-0.1875,0.1875
336743057046,0,-0.125,0.375
336743079538,-0.25,-0.25,0.5
336743109957,-0.1875,-0.1875,0.3125
336743118914,-0.4375,0.125,0.3125
336743139700,-0.5,0.125,0.125
336743162710,-0.4375,-0.0625,0.3125
336743177014,-0.25,-0.25,-0.125
336743199580,-0.125,-0.4375,0.0625
336743222785,-0.6875,-0.5,0.0625
336743237048,-1.75,-0.5625,0.3125
336743259545,-1.375,-0.8125,0.375
336743282694,-1,-0.1875,0.1875
336743297022,-0.375,-0.0625,0.25
336743319523,-0.625,-0.0625,0.3125
336743342721,-0.0625,-0.125,0.125
336743357074,0.6875,-0.1875,-0.1875
336743379544,0.625,-0.1875,-0.0625
336743402709,0.4375,-0.125,0
336743417050,0.375,-0.375,0.0625
336743439521,0.5,-0.3125,-0.25
336743462759,0.75,0.125,-0.375
336743477120,0.875,-0.1875,-0.25
336743499572,0.5,-0.0625,-0.375
336743522725,0.5625,0.0625,-0.375
336743537050,0.125,0.25,-0.1875
336743559572,0.375,-0.1875,-0.1875
336743582698,0.6875,-0.625,-0.1875
336743597117,0.3125,-0.1875,0
336743620504,-0.0625,0.1875,0.125
336743642725,-0.6875,0.4375,0.1875
336743672113,0,0.125,0.0625
336743679538,-0.1875,0.125,0.25
336743702710,0.3125,-0.125,0
336743723826,-0.1875,0.125,0.25
336743739868,-0.25,0.25,0.0625
336743762807,-0.3125,0.125,-0.125
336743783800,-0.1875,-0.25,-0.1875
336743799581,0,-0.3125,-0.1875
336743822730,-0.1875,0.0625,0
336743843762,-0.375,0.1875,-0.0625
336743859602,-0.3125,0.125,-0.25
336743882101,0.0625,0.0625,-0.25
336743903843,-0.25,0.125,0.125
336743919612,-0.3125,0.3125,0
336743942190,-0.6875,0.1875,0.125
336743963847,-0.5625,0.125,-0.0625
336743979597,-0.6875,0.125,-0.125
336744002131,-0.4375,0.125,0
336744023814,-0.625,0.125,0.0625
336744039591,-0.75,0.1875,0.0625
336744062087,-0.5,0.1875,0
336744085239,-0.5,-0.0625,0.0625
336744099558,-0.125,0,0.0625
336744122254,-0.25,0,0.0625
336744145378,-0.1875,0,-0.125
336744159608,-0.3125,-0.0625,-0.3125
336744182268,0.1875,-0.0625,-0.0625
336744205254,0.375,-0.1875,-0.125
336744219585,-0.0625,-0.1875,0.1875
336744242057,-0.0625,-0.125,0
336744265281,-0.0625,0.0625,-0.125
336744279619,0.1875,0.0625,-0.375
336744302098,-0.25,-0.0625,0
336744325228,-0.3125,0.0625,-0.0625
336744339574,-0.1875,0.125,-0.0625
336744362666,-0.125,0.0625,0
336744385272,0.0625,-0.0625,-0.125
336744406322,0.25,-0.1875,0.0625
336744422094,0.3125,0.125,-0.0625
336744445264,-0.0625,0.1875,-0.125
336744459653,0.125,0.4375,-0.1875
336744482074,0.1875,0.25,-0.125
336744505235,0.25,0.125,-0.0625
336744519620,0,0,0.0625
336744542130,-0.0625,0.0625,0.0625
336744565271,-0.1875,0.25,0.1875
336744586300,-0.125,0.1875,0.0625
336744602127,-0.125,0,-0.1875
336744625313,-0.0625,-0.0625,-0.1875
336744646392,-0.25,0.1875,0.125
336744662426,-0.25,0.25,0.0625
336744685282,-0.125,0.375,-0.25
336744706381,-0.5625,0.5,-0.1875
336744722114,-0.5,0.3125,0
336744745256,0,-0.0625,0
336744766301,-0.4375,0.125,-0.1875
336744782129,-0.4375,0.25,0.125
336744805287,-0.75,0.375,-0.1875
336744820662,-0.5625,0.125,-0.25
336744841340,-0.25,0.0625,0.0625
336744855666,0.25,-0.125,-0.0625
336744878653,0.0625,0.125,0.25
336744904431,-0.3125,0.0625,0.125
336744915709,-0.3125,-0.25,-0.1875
336744941875,0.0625,-0.1875,-0.0625
336744967831,0.375,-0.1875,0
336744976232,0.0625,-0.25,0.3125
336745002047,0.1875,-0.1875,0.125
336745025423,0,0,-0.0625
336745035693,0.0625,-0.125,-0.125
336745058211,0.4375,-0.375,0
336745081368,0.6875,-0.375,-0.1875
336745096709,0.1875,-0.125,-0.0625
336745118223,0.5625,-0.25,-0.1875
336745141365,0.125,-0.0625,-0.25
336745155705,0.375,-0.1875,-0.125
336745178215,0.0625,-0.1875,-0.0625
336745201354,0.125,0.1875,0.0625
336745215701,0.25,0.125,-0.25
336745238207,0.4375,0.1875,-0.25
336745261387,0.625,-0.0625,-0.1875
336745275646,0.25,0.1875,0.125
336745298166,0.5,0.0625,0.125
336745321486,0.1875,0,-0.1875
336745335670,0.125,-0.0625,-0.125
336745358330,0.125,-0.125,0.0625
336745381356,-0.125,0,0.125
336745395714,0,0.125,-0.0625
336745418198,-0.25,0.1875,-0.1875
336745441362,-0.0625,0.125,-0.0625
336745455725,-0.125,0.0625,-0.0625
336745478241,0.1875,0.0625,-0.125
336745501413,0.0625,0.125,-0.125
336745515734,0.1875,0.0625,-0.0625
336745538206,0.0625,0,-0.125
336745561406,0,0.1875,-0.125
336745575844,-0.1875,-0.125,-0.0625
336745598267,-0.1875,0.1875,-0.0625
336745621465,0.25,0,-0.0625
336745635730,0,-0.0625,0.0625
336745658251,0.1875,-0.0625,-0.125
336745681395,0.1875,-0.1875,-0.0625
336745695744,0.25,-0.1875,-0.0625
336745718319,0.3125,-0.125,-0.125
336745741409,0.1875,-0.0625,-0.0625
336745755829,0.0625,-0.25,-0.0625
336745778269,0.1875,-0.125,-0.125
336745801387,0.5625,-0.3125,-0.25
336745815739,0.4375,-0.25,0.125
336745838228,0.375,-0.1875,0
336745861390,0.3125,-0.125,-0.1875
336745875753,0.1875,-0.125,-0.1875
336745898239,0.5,-0.1875,-0.125
336745921343,0.375,-0.25,0.0625
336745935724,0.4375,-0.375,-0.0625
336745958246,0.5,-0.1875,-0.1875
336745980714,0.625,-0.3125,-0.3125
336745995708,0.375,-0.1875,-0.1875
336746018230,0.25,-0.25,0.0625
336746040704,-0.0625,-0.125,0
336746055698,-0.125,0.1875,0
336746078263,-0.125,-0.125,-0.0625
336746100758,0.25,0,0.0625
336746115715,0.3125,0.125,0.125
336746138296,0.375,-0.0625,0.0625
336746160736,0.4375,-0.0625,-0.125
336746175761,0.625,-0.1875,-0.0625
336746198210,0.625,-0.25,0
336746220745,0.1875,-0.1875,0.25
336746235758,0.3125,-0.0625,0.1875
336746258222,0.125,-0.125,0.125
336746280737,-0.125,-0.125,0.3125
336746295817,-0.125,-0.125,0.25
336746318265,-0.0625,-0.1875,0.25
336746340772,-0.125,-0.25,0.1875
336746355748,-0.125,-0.375,0.3125
336746378236,0.0625,-0.25,0.3125
336746400936,-0.125,-0.1875,0.5
336746415758,-0.3125,-0.125,0.375
336746438267,-0.125,-0.375,0.125
336746460860,-0.25,-0.1875,0.125
336746475855,-0.375,-0.1875,0.25
336746498385,-0.4375,0.0625,0.25
336746520784,-0.3125,-0.0625,0.0625
336746535821,-0.25,-0.1875,0.125
336746558355,-0.1875,-0.375,0.0625
336746580804,-0.125,-0.3125,0.1875
336746595793,-0.1875,-0.25,0.3125
336746618249,-0.1875,-0.375,0.25
336746640813,-0.3125,-0.1875,0.375
336746655801,0.375,-0.5,-0.0625
336746678350,0.5625,-0.375,0.0625
336746694707,0.1875,-0.5,0.125
336746715922,0.375,-0.5625,0.25
336746738246,0.5,-0.5625,0
336746754740,0.4375,-0.3125,-0.0625
336746777250,0.625,-0.4375,-0.0625
336746798351,0.1875,-0.4375,0.1875
336746816130,0.75,-0.375,-0.0625
336746837214,0.625,-0.625,-0.0625
336746858286,0.625,-0.5,-0.3125
336746874742,0.5625,-0.4375,-0.375
336746897252,0.4375,-0.625,0.0625
336746918215,0.4375,-0.375,0.1875
336746934731,0.1875,-0.1875,0.1875
336746957208,0.4375,-0.1875,0.0625
336746978328,0.125,-0.375,-0.125
336746994709,0.5625,-0.3125,0.0625
336747017262,0.125,-0.1875,0.25
336747046387,0.1875,-0.1875,0.125
336747054804,0.5625,-0.125,-0.0625
336747077237,1.3125,-0.5625,-0.125
336747098264,0.5625,-0.5625,0.1875
336747114703,0.625,-0.3125,0.1875
336747137246,0.25,-0.25,-0.125
336747159783,0.1875,-0.125,-0.3125
336747174775,0.1875,-0.125,-0.25
336747197185,0.1875,0.0625,-0.0625
336747218287,-0.0625,0,-0.0625
336747235661,0,0.25,-0.1875
336747257297,0.0625,-0.0625,0.125
336747278268,-0.125,0.0625,0.3125
336747294681,-0.1875,0.125,0.25
336747317182,-0.1875,0.0625,0.125
336747338301,0.125,-0.125,0.25
336747354682,-0.0625,0.1875,0.0625
336747377228,0.0625,0.625,-0.375
336747398307,-0.125,0.5,-0.1875
336747414729,0.5,1.125,0.1875
336747437231,0.8125,1.4375,0.3125
336747458283,0.0625,1.5625,1.125
336747480801,-0.625,1.6875,0.5
336747497224,-1.375,1.25,-0.5625
336747518282,-1.6875,0.3125,-1.25
336747534681,-0.8125,-0.25,-1.5625
336747557233,0.4375,-0.5625,-0.9375
336747578299,1.5,-1.125,-0.3125
336747594727,1.75,-1.375,-0.0625
336747617264,1.6875,-1.375,-0.125
336747638282,1.6875,-1.6875,-0.3125
336747654727,2.375,-1.875,-0.625
336747677224,2.6875,-1.625,-1.0625
336747699724,2.25,-1.5625,-0.875
336747714731,1.9375,-0.875,-0.5625
336747737206,2,-0.6875,-0.875
336747759704,1.5625,-1.0625,-0.6875
336747774732,1.8125,-0.875,-0.5625
336747797224,1.5,-0.875,-0.25
336747819713,1.5,-1,-0.1875
336747834707,1.75,-0.9375,-0.25
336747857208,1.5625,-0.4375,-0.3125
336747879749,0.8125,-0.4375,-0.4375
336747896151,0.9375,0.0625,-0.0625
336747917255,1.0625,-0.0625,0.25
336747938950,0.75,-0.4375,0.1875
336747955377,0.9375,-0.1875,0
336747976458,0.1875,-0.125,0.0625
336747998930,0.3125,-0.3125,-0.0625
336748015359,-0.375,-0.375,-0.25
336748036495,-2.5,-0.9375,-0.5
336748058947,-6.875,-4,-0.25
336748075408,-11.4375,-4.5,-1.5
336748096454,-12.3125,4.25,-5.5625
336748118943,-7.9375,17.125,-6.125
336748141443,-4.625,32.375,-14.125
336748156455,-9.4375,48.375,-27.4375
336748178971,-12.9375,59.375,-39.0625
336748201559,-3.625,64.75,-55.4375
336748218324,2.4375,67.3125,-79.625
336748238949,5,70,-103.625
336748261634,1.1875,66,-118.688
336748276505,-0.0625,59.5,-134
336748299064,-0.5625,49.5,-146.562
336748321556,-4.875,42,-155.562
336748336598,-5.1875,34.9375,-161.375
336748360473,-10.8125,29.5625,-162.75
336748381478,-20.5,30.9375,-157.25
336748396500,-15.4375,37,-150
336748419032,-15.3125,43.5625,-143.625
336748441473,-27.625,53.0625,-135.625
336748456542,-37.1875,72.3125,-128.688
336748478999,-24.375,87.9375,-120.25
336748501621,-18.3125,98.125,-105.188
336748516505,-24.75,108.312,-88.5625
336748539015,-29.25,117.188,-71
336748561627,-19.75,117.875,-52.5625
336748576502,-8.25,112.312,-34.4375
336748599059,-2.4375,106.25,-18.0625
336748621613,3.375,101.688,-0.0625
336748636613,11,96.0625,20.375
336748659017,15.4375,91.125,40.0625
336748681653,18.625,87.375,57.5625
336748696560,24.3125,82.0625,72.125
336748719520,27.8125,74.6875,85.125
336748741659,28,65.8125,97.0625
336748756574,28.25,54.6875,109
336748780509,30.3125,45.375,117.938
336748794765,30.75,36.3125,123.188
336748817954,30.5,28.375,125.812
336748838966,29.125,21.75,126
336748854834,28.5,14.375,126.312
336748878022,26,5.5625,128.5
336748899019,23.3125,-4.8125,132.5
336748914777,22.6875,-13.6875,134.875
336748937947,23.3125,-20.875,133.062
336748959029,20.125,-28.625,130.562
336748974858,18.625,-40.3125,130.375
336748997997,19.875,-49.625,128.875
336749018976,19.375,-54.75,124.875
336749034854,16.25,-59.25,121.438
336749058022,16.6875,-69,120.688
336749079031,18.5,-80.3125,121.062
336749094751,18.125,-87.125,119.875
336749118008,17,-90.875,120.75
336749155400,22,-97.4375,117
336749157812,22.9375,-98.0625,112.438
336749178010,14.8125,-95.625,106.625
336749199117,3.625,-92.0625,103.188
336749214872,-3,-90.375,100.125
336749238397,-11.75,-88.875,94.9375
336749259059,-24.75,-86,84.125
336749274844,-35.375,-82.5,72.6875
336749297989,-40.5,-80.125,68
336749319059,-36.375,-70.9375,64.4375
336749334807,-37.4375,-62.5625,62.5625
336749357974,-42.375,-52.5625,57.0625
336749379032,-48.375,-39.6875,50.875
336749394835,-47.25,-32.875,47.125
336749418041,-48.625,-23.625,45.4375
336749439080,-45.5,-12,40.125
336749454872,-43.375,1.125,34.0625
336749478027,-43,5.8125,31.375
336749499123,-40.3125,6.25,33.3125
336749514864,-36.5625,7.625,36.4375
336749538012,-38.375,12.4375,38.375
336749559076,-38.8125,16.3125,40
336749574833,-34.1875,17.1875,39.3125
336749597331,-30.0625,15.5,40.1875
336749619092,-27.625,16.75,40.8125
336749634832,-23.375,19.875,39.625
336749657348,-19.6875,21.3125,36.5625
336749679109,-18.25,20.5625,33
336749694774,-22.0625,21.8125,29.5625
336749717396,-23.25,25.875,25.0625
336749739071,-26.9375,29.3125,19.1875
336749754884,-28.625,33.4375,13.125
336749777358,-32.6875,36.625,6.6875
336749800513,-27.5,39.125,3.5
336749814896,-32.5625,36.875,4.8125
336749837298,-30.125,43.25,-0.875
336749860613,-45.6875,57,-14.0625
336749881529,-51.6875,67.9375,-32.3125
336749897378,-45.375,73.1875,-44.8125
336749920577,-44.1875,77.0625,-53
336749941636,-42.4375,79.0625,-61.125
336749957363,-36.875,77,-70.3125
336749980567,-38.1875,74.8125,-74.75
336750001545,-35.5,69.9375,-77.75
336750017382,-31.625,65.0625,-81.6875
336750040605,-31.4375,62.5,-89.625
336750061637,-31.625,59,-96.375
336750077355,-23.8125,52.375,-97.875
336750100555,-19.625,46.375,-100.5
336750121610,-19.0625,38.5625,-106.375
336750137334,-21.375,29.9375,-110.25
336750160561,-21.25,25.9375,-114.5
336750181641,-15.5,22.75,-116.562
336750197390,-7,20.0625,-116.312
336750220550,-6.4375,16.8125,-115.625
336750241601,-7.5,15.8125,-113.562
336750257377,-3.375,18,-111.938
336750280555,3.375,21.125,-110.5
336750301674,4.4375,31.75,-110.938
336750317388,2.125,53.6875,-112.312
336750340565,-5.875,79.3125,-114.688
336750361613,-12.5625,100.375,-106.875
336750377366,-10.25,117.125,-91.6875
336750400604,-14.5,122.125,-71.125
336750429104,-11.5625,119.312,-49.5625
336750437382,-1.875,107.562,-25.8125
336750468076,10.5,88.1875,-0.375
336750481560,19.8125,67.8125,23.1875
336750497345,27.375,46.625,41.125
336750519861,35.75,24.3125,57.4375
336750541606,42.875,2.9375,72.8125
336750557370,48.5,-19.3125,84.0625
336750579902,56.1875,-36.0625,93
336750601604,64.25,-47.4375,97.3125
336750617442,69.375,-61.4375,101.188
336750639924,79.625,-70.6875,103.312
336750661623,83.6875,-73.375,102.125
336750677399,86.9375,-74.25,103.25
336750699911,83,-77.1875,109.375
336750723019,81.625,-85.125,118.062
336750737412,71.5,-86.9375,122.562
336750759927,50.75,-94.1875,123.438
336750783029,38.4375,-101.5,123.938
336750797412,26.3125,-108.625,116.688
336750819947,16.375,-103.75,104.438
336750843099,10.125,-94.375,92.4375
336750864196,5.8125,-87.6875,80.125
336750879932,-0.125,-83.5625,71.4375
336750903033,-11.375,-81.5625,69.625
336750924160,-14.9375,-72.75,64.9375
336750939938,-17.6875,-58.9375,58.6875
336750963084,-24.75,-49.5625,51.4375
336750984136,-30,-40.1875,43.1875
336750999854,-32.5625,-30.75,34.8125
336751023010,-34.375,-20.5625,26.125
336751044078,-35.875,-11.5,19.4375
336751059132,-40.9375,-3.8125,13.4375
336751073445,-43.5,3.875,8.4375
336751095939,-41.5625,10.1875,2.9375
336751119167,-38.3125,14.6875,-1.25
336751133521,-39.1875,17.3125,-5.125
336751156009,-38.375,19.6875,-9.9375
336751179179,-38.125,21.8125,-13.8125
336751193542,-33.25,22.8125,-18.5
336751216020,-28.5,23.6875,-22.1875
336751239166,-26.75,24.4375,-25.6875
336751253507,-26.1875,22.8125,-27.875
336751276003,-25.875,20.125,-27.9375
336751299156,-26.4375,16.5625,-29.0625
336751313515,-21.25,14.625,-28.1875
336751336009,-15.8125,11.5625,-26.9375
336751359166,-16.625,8.1875,-26
336751373531,-21.125,5.4375,-25.375
336751395933,-19.8125,3.75,-22.4375
336751419126,-16.875,2.125,-19.125
336751433579,-16.9375,-1.5,-16.375
336751455946,-16.875,-5.75,-13.6875
336751479124,-16.3125,-7.6875,-10.3125
336751493491,-12.1875,-9.125,-8
336751515992,-10.375,-9.5625,-7.625
336751539161,-11.9375,-4.125,-7.125
336751553471,-6.375,4.8125,-3.125
336751576721,-3.375,6.5,-0.1875
336751591073,-5.375,7.3125,-0.5
336751613496,-8.375,9.875,-3.3125
336751636652,-6.375,14.125,-5.5625
336751651008,-6.125,14.5625,-3.3125
336751673515,-6.5,14.875,-1.125
336751696021,-6.875,15.8125,0.625
336751711043,-8.3125,16,0.5625
336751733479,-6.875,13.625,1
336751756028,-4.1875,10.4375,0.5625
336751771016,-2.5625,7.8125,-0.5625
336751793525,-1.3125,5.5625,-0.5625
336751816081,-0.75,3.5,-0.375
336751831027,0.625,2.1875,0.0625
336751853512,2.9375,0.625,1.3125
336751875999,4.6875,-0.9375,2
336751891067,6.1875,-2.125,1.875
336751913483,5.375,-2.6875,1.9375
336751936114,5.0625,-2.3125,1.5
336751951054,3.25,-1.75,2
336751973519,1.625,-1.4375,2.125
336751996014,0.3125,-0.5,1.6875
336752010945,1.5625,-0.9375,0.8125
336752033443,0.6875,0.6875,0
336752057401,0.375,2.4375,-1.375
336752071040,0.0625,5.1875,-1.4375
336752093647,3.1875,11.625,-3.625
336752115972,1.125,11.1875,-4.1875
336752130996,1.8125,6,0.3125
336752153586,6.0625,9.5,1.125
336752175995,6.4375,8.1875,4.1875
336752191084,4.0625,0.25,8.625
336752213542,7.875,-5.0625,8.125
336752236018,11.125,-4.125,6.125
336752251035,5.25,-7.4375,0.9375
336752273436,-1.5,-10.5625,-0.875
336752296008,-1.4375,-8.0625,-1.9375
336752311075,-4.9375,-2,-4.3125
336752333553,-6.125,-0.125,-8.1875
336752356031,-4.0625,-0.5,-7.375
336752371045,-1.9375,-1.5,-5.625
336752393696,-0.1875,-2.25,-3.25
336752416062,2.625,-3.375,-1.4375
336752432434,3.625,-3.25,-1.4375
336752453566,1.625,-5.5625,-0.8125
336752476049,1.6875,-5.1875,1.375
336752492397,-0.8125,-4.8125,1.6875
336752513530,-1.3125,-3,-0.5625
336752535959,-1.875,-0.1875,-3.75
336752553957,-2.25,1.125,-6.0625
336752573657,-1.9375,2.125,-6.6875
336752596068,-1.625,2.3125,-5.875
336752612505,-1.625,1.1875,-4.4375
336752633647,-1.1875,0.8125,-4.875
336752656077,-2,0.9375,-4.0625
336752672485,-2.0625,-0.3125,-1.75
336752693601,-1.4375,-1.8125,0.1875
336752715999,-1.125,-2.875,1.4375
336752732503,-0.5,-2.375,1.125
336752753584,-0.75,-1.5625,-0.25
336752775955,-0.1875,-1.5,-0.6875
336752792603,0.4375,-1.5,-0.5
336752813682,1.125,-0.8125,-0.5625
336752836066,-0.125,-0.1875,-0.8125
336752852594,-0.5625,0.5,-1.0625
336752873628,-0.875,0.8125,-0.6875
336752896021,-0.8125,1.125,-0.25
336752912565,-0.8125,1,0.25
336752933634,-0.3125,0.8125,0.375
336752956077,-0.6875,0.5,-0.0625
336752972462,-1.125,0.8125,0.375
336752993618,-1.1875,-0.0625,1.3125
336753016013,-1.125,-0.75,1.1875
336753032555,-1.125,-0.6875,0.5625
336753053604,-1.1875,-0.875,0.9375
336753076065,-1.375,-0.8125,0.625
336753093909,-1.125,-0.3125,0.5
336753113576,-0.5625,-0.125,0.375
336753136061,-0.6875,0.375,0.3125
336753152556,-0.3125,0.75,-0.0625
336753173608,-0.125,1,-0.25
336753196012,0.3125,0.8125,0
336753212560,0.5,0.6875,-0.125
336753233603,-0.5625,0.4375,0.5625
336753256093,-0.6875,0.4375,0.4375
336753272599,-0.75,0.25,0.1875
336753293554,-0.125,0.1875,0.0625
336753316106,0,-0.25,-0.25
336753332558,-0.375,-0.375,-0.0625
336753353572,0,0.375,0.5
