timestamp,roll,pitch,yaw
336682070842,-0.30956,-0.0816423,0.337379
336682094418,-0.309056,-0.0817817,0.33699
336682123337,-0.309842,-0.0826485,0.337061
336682131948,-0.309913,-0.0831792,0.336773
336682153266,-0.310233,-0.0838436,0.336146
336682183892,-0.310296,-0.0836649,0.335626
336682231004,-0.310421,-0.0836455,0.335634
336682231781,-0.310522,-0.0835067,0.335619
336682238306,-0.31056,-0.0831649,0.335309
336682252691,-0.310685,-0.0831455,0.335317
336682274015,-0.310661,-0.0830261,0.335295
336682288301,-0.310685,-0.0831455,0.335317
336682341365,-0.310685,-0.0831455,0.335317
336682342114,-0.310903,-0.0831781,0.334831
336682355627,-0.311028,-0.0831587,0.334838
336682372089,-0.311028,-0.0831587,0.334838
336682394549,-0.311028,-0.0831587,0.334838
336682409579,-0.311028,-0.0831587,0.334838
336682432092,-0.311152,-0.0831393,0.334846
336682461303,-0.311152,-0.0831393,0.334846
336682475648,-0.311261,-0.0829827,0.334957
336682492153,-0.311261,-0.0829827,0.334957
336682514572,-0.311409,-0.0830827,0.334987
336682535665,-0.311409,-0.0830827,0.334987
336682552106,-0.311409,-0.0830827,0.334987
336682574618,-0.311409,-0.0830827,0.334987
336682588173,-0.311533,-0.0830633,0.334994
336682611281,-0.31151,-0.082944,0.334972
336682633833,-0.311533,-0.0830633,0.334994
336682648142,-0.311635,-0.0829246,0.33498
336682679498,-0.311618,-0.0829165,0.334961
336682693858,-0.311641,-0.0830358,0.334984
336682708200,-0.311641,-0.0830358,0.334984
336682731332,-0.311641,-0.0830358,0.334984
336682753782,-0.311766,-0.0830164,0.334991
336682768132,-0.311766,-0.0830164,0.334991
336682791313,-0.311766,-0.0830164,0.334991
336682813767,-0.31189,-0.0829971,0.334999
336682828209,-0.31189,-0.0829971,0.334999
336682851332,-0.312015,-0.0829777,0.335007
336682873825,-0.312015,-0.0829777,0.335007
336682888180,-0.312015,-0.0829777,0.335007
336682911363,-0.312015,-0.0829777,0.335007
336682933849,-0.312015,-0.0829777,0.335007
336682948190,-0.312139,-0.0829583,0.335014
336682971377,-0.312139,-0.0829583,0.335014
336682993855,-0.312139,-0.0829583,0.335014
336683008131,-0.312139,-0.0829583,0.335014
336683031305,-0.312264,-0.0829389,0.335022
336683053798,-0.312264,-0.0829389,0.335022
336683068151,-0.312264,-0.0829389,0.335022
336683091400,-0.312371,-0.0829114,0.335011
336683113828,-0.312862,-0.0830251,0.334563
336683128104,-0.313828,-0.0829424,0.334122
336683151049,-0.314592,-0.0831374,0.333712
336683173824,-0.31579,-0.083009,0.333269
336683188161,-0.316335,-0.0827023,0.332994
336683211366,-0.317153,-0.0825212,0.332523
336683233627,-0.317435,-0.0821604,0.332103
336683248138,-0.317411,-0.0820411,0.33208
336683271257,-0.317411,-0.0820411,0.33208
336683293825,-0.317388,-0.0819218,0.332058
336683308069,-0.317411,-0.0820411,0.33208
336683330601,-0.317411,-0.0820411,0.33208
336683353572,-0.317411,-0.0820411,0.33208
336683368160,-0.317536,-0.0820219,0.332088
336683390646,-0.317536,-0.0820219,0.332088
336683413157,-0.317661,-0.0820027,0.332096
336683428133,-0.317661,-0.0820027,0.332096
336683450641,-0.317661,-0.0820027,0.332096
336683473183,-0.317786,-0.0819836,0.332103
336683488238,-0.317786,-0.0819836,0.332103
336683510716,-0.317786,-0.0819836,0.332103
336683533210,-0.317809,-0.0821028,0.332126
336683548188,-0.317934,-0.0820837,0.332133
336683570684,-0.31791,-0.0819644,0.332111
336683593208,-0.31791,-0.0819644,0.332111
336683608234,-0.31791,-0.0819644,0.332111
336683630637,-0.318035,-0.0819452,0.332119
336683653174,-0.318035,-0.0819452,0.332119
336683668199,-0.318018,-0.0819371,0.3321
336683690686,-0.318142,-0.0819179,0.332108
336683713220,-0.318142,-0.0819179,0.332108
336683729627,-0.318142,-0.0819179,0.332108
336683752173,-0.318142,-0.0819179,0.332108
336683773231,-0.318142,-0.0819179,0.332108
336683788210,-0.318267,-0.0818987,0.332116
336683810661,-0.318267,-0.0818987,0.332116
336683833203,-0.318267,-0.0818987,0.332116
336683848214,-0.318267,-0.0818987,0.332116
336683870686,-0.318392,-0.0818795,0.332123
336683893287,-0.318392,-0.0818795,0.332123
336683908172,-0.318392,-0.0818795,0.332123
336683938839,-0.318392,-0.0818795,0.332123
336683953188,-0.318517,-0.0818603,0.332131
336683968191,-0.318493,-0.081741,0.332108
336683990751,-0.318493,-0.081741,0.332108
336684013152,-0.318493,-0.081741,0.332108
336684028166,-0.318493,-0.081741,0.332108
336684050675,-0.318493,-0.081741,0.332108
336684073200,-0.318618,-0.0817218,0.332116
336684091032,-0.318618,-0.0817218,0.332116
336684110665,-0.318595,-0.0816025,0.332093
336684133241,-0.317948,-0.081405,0.332386
336684165899,-0.317091,-0.0813736,0.332704
336684170723,-0.316319,-0.0811958,0.33299
336684193274,-0.316111,-0.0813616,0.333015
336684211164,-0.316235,-0.0813424,0.333023
336684230711,-0.316343,-0.0813151,0.333012
336684253170,-0.316677,-0.081598,0.333346
336684276378,-0.316677,-0.081598,0.333346
336684290714,-0.316677,-0.081598,0.333346
336684313220,-0.316677,-0.081598,0.333346
336684329644,-0.316677,-0.081598,0.333346
336684350759,-0.316677,-0.081598,0.333346
336684373242,-0.316677,-0.081598,0.333346
336684389658,-0.316654,-0.0814787,0.333323
336684410744,-0.316677,-0.081598,0.333346
336684433180,-0.316802,-0.0815788,0.333353
336684455736,-0.316785,-0.0815707,0.333335
336684470665,-0.316785,-0.0815707,0.333335
336684493294,-0.316785,-0.0815707,0.333335
336684509614,-0.316761,-0.0814514,0.333312
336684532199,-0.316886,-0.0814321,0.33332
336684553225,-0.31691,-0.0815514,0.333343
336684569756,-0.31691,-0.0815514,0.333343
336684590729,-0.31691,-0.0815514,0.333343
336684613185,-0.317034,-0.0815322,0.33335
336684629636,-0.317034,-0.0815322,0.33335
336684650766,-0.317058,-0.0816514,0.333373
336684673260,-0.317058,-0.0816514,0.333373
336684689622,-0.317182,-0.0816322,0.33338
336684710701,-0.317159,-0.0815129,0.333358
336684733175,-0.317159,-0.0815129,0.333358
336684749699,-0.317159,-0.0815129,0.333358
336684770717,-0.317159,-0.0815129,0.333358
336684793229,-0.317307,-0.0816129,0.333388
336684809703,-0.317307,-0.0816129,0.333388
336684830716,-0.317307,-0.0816129,0.333388
336684853325,-0.317307,-0.0816129,0.333388
336684869677,-0.317307,-0.0816129,0.333388
336684890753,-0.317432,-0.0815936,0.333396
336684913265,-0.317432,-0.0815936,0.333396
336684929570,-0.317432,-0.0815936,0.333396
336684950778,-0.317539,-0.0815663,0.333385
336684973242,-0.317539,-0.0815663,0.333385
336684991104,-0.317539,-0.0815663,0.333385
336685010750,-0.317664,-0.081547,0.333393
336685033215,-0.317664,-0.081547,0.333393
336685049657,-0.317687,-0.0816663,0.333415
336685070827,-0.317687,-0.0816663,0.333415
336685093207,-0.317687,-0.0816663,0.333415
336685115757,-0.317711,-0.0817856,0.333438
336685132182,-0.317711,-0.0817856,0.333438
336685153264,-0.317835,-0.0817663,0.333445
336685169714,-0.317835,-0.0817663,0.333445
336685192212,-0.31796,-0.081747,0.333453
336685213237,-0.317983,-0.0818663,0.333476
336685235782,-0.317983,-0.0818663,0.333476
336685252215,-0.317983,-0.0818663,0.333476
336685273252,-0.317983,-0.0818663,0.333476
336685291103,-0.317983,-0.0818663,0.333476
336685312246,-0.317983,-0.0818663,0.333476
336685333249,-0.318108,-0.0818471,0.333483
336685349714,-0.318108,-0.0818471,0.333483
336685378275,-0.318108,-0.0818471,0.333483
336685394729,-0.318108,-0.0818471,0.333483
336685409651,-0.318108,-0.0818471,0.333483
336685438281,-0.318108,-0.0818471,0.333483
336685453187,-0.318233,-0.0818278,0.333491
336685469713,-0.318256,-0.0819471,0.333514
336685492205,-0.318256,-0.0819471,0.333514
336685513320,-0.318239,-0.081939,0.333495
336685529717,-0.318239,-0.081939,0.333495
336685552274,-0.318239,-0.081939,0.333495
336685573294,-0.318364,-0.0819197,0.333503
336685589689,-0.318364,-0.0819197,0.333503
336685612250,-0.318364,-0.0819197,0.333503
336685633277,-0.317788,-0.0819511,0.333984
336685649713,-0.316587,-0.0820349,0.33466
336685673630,-0.315301,-0.0822221,0.335601
336685693928,-0.314383,-0.0824145,0.336208
336685710353,-0.313207,-0.0827936,0.336552
336685731450,-0.312609,-0.0828812,0.336658
336685753716,-0.312501,-0.0830379,0.336547
336685768920,-0.312501,-0.0830379,0.336547
336685791393,-0.312765,-0.0825382,0.33623
336685813917,-0.312765,-0.0825382,0.33623
336685828947,-0.313193,-0.0822757,0.33584
336685851483,-0.313241,-0.0819604,0.335422
336685873754,-0.313399,-0.0816618,0.334762
336685888947,-0.313394,-0.0812993,0.333821
336685911427,-0.313322,-0.0807963,0.332227
336685933926,-0.313281,-0.0800762,0.329608
336685948951,-0.313624,-0.0794403,0.325138
336685971432,-0.314613,-0.0788381,0.318962
336685993740,-0.315645,-0.0776866,0.310707
336686010309,-0.316447,-0.0759615,0.299971
336686031380,-0.317234,-0.0748985,0.286737
336686053992,-0.317676,-0.0743178,0.270681
336686068924,-0.31796,-0.075148,0.252257
336686091236,-0.316916,-0.0772756,0.231385
336686113937,-0.315231,-0.080551,0.208195
336686128899,-0.314123,-0.0856566,0.183867
336686151450,-0.313726,-0.0916808,0.158761
336686173784,-0.313059,-0.0972717,0.133341
336686188890,-0.310631,-0.102217,0.107723
336686211380,-0.308146,-0.106917,0.0825664
336686233977,-0.305653,-0.111864,0.0579474
336686248889,-0.303095,-0.116446,0.0337593
336686271424,-0.299344,-0.120364,0.00951546
336686293873,-0.295424,-0.123827,-0.0146906
336686310374,-0.291966,-0.127206,-0.038767
336686331558,-0.289094,-0.129935,-0.0629135
336686353958,-0.286826,-0.131586,-0.0874356
336686370430,-0.284364,-0.132105,-0.112147
336686391433,-0.28327,-0.131169,-0.136625
336686413998,-0.28307,-0.12925,-0.160706
336686430368,-0.283036,-0.125455,-0.183682
336686451475,-0.283655,-0.119267,-0.205867
336686473987,-0.283721,-0.111299,-0.226487
336686490422,-0.283642,-0.102425,-0.245376
336686511507,-0.283949,-0.0915021,-0.261923
336686534021,-0.283029,-0.0776871,-0.277055
336686550411,-0.281187,-0.0606955,-0.291263
336686571431,-0.278789,-0.0408737,-0.304092
336686601434,-0.27574,-0.0183315,-0.315661
336686610341,-0.274472,0.00734103,-0.32641
336686631394,-0.273508,0.0372291,-0.336685
336686655352,-0.270767,0.0710468,-0.345565
336686670415,-0.268015,0.106858,-0.352516
336686691487,-0.266712,0.14519,-0.357105
336686713989,-0.263933,0.185824,-0.359069
336686730386,-0.26021,0.227494,-0.35971
336686751506,-0.257454,0.269729,-0.357933
336686773710,-0.254367,0.311543,-0.353294
336686790384,-0.249958,0.352434,-0.346717
336686811537,-0.245352,0.391528,-0.338332
336686834012,-0.241432,0.428444,-0.327745
336686850363,-0.23525,0.462636,-0.313625
336686871432,-0.228867,0.495006,-0.296926
336686893990,-0.222174,0.524144,-0.277485
336686910385,-0.215169,0.549605,-0.255637
336686931502,-0.207754,0.572217,-0.232235
336686954001,-0.199471,0.592619,-0.20827
336686970449,-0.190552,0.610874,-0.183059
336686991448,-0.181809,0.626286,-0.156804
336687013986,-0.173173,0.639149,-0.130086
336687029719,-0.164239,0.650171,-0.103147
336687051476,-0.156282,0.659012,-0.0765713
336687074013,-0.147812,0.666198,-0.049024
336687089723,-0.138536,0.671348,-0.0206777
336687111405,-0.130317,0.674877,0.00787755
336687133760,-0.122849,0.676174,0.0366137
336687156430,-0.11533,0.675483,0.0658704
336687171455,-0.108104,0.672784,0.0945816
336687201462,-0.100365,0.667682,0.123509
336687223939,-0.0930624,0.65998,0.152535
336687232907,-0.0862761,0.649971,0.182087
336687253700,-0.0792618,0.638172,0.21183
336687271205,-0.0730843,0.624505,0.241298
336687292873,-0.0657567,0.608054,0.270817
336687313962,-0.0594613,0.590077,0.298482
336687329750,-0.0553809,0.571163,0.324545
336687352860,-0.0517687,0.550663,0.349881
336687373722,-0.0486517,0.529349,0.373649
336687389710,-0.0479494,0.507605,0.395531
336687412902,-0.048971,0.483846,0.416247
336687433974,-0.0500181,0.45843,0.436299
336687449770,-0.0518045,0.432545,0.454628
336687472880,-0.0542303,0.40644,0.470722
336687493961,-0.0571231,0.378709,0.48537
336687516435,-0.0606931,0.349677,0.498373
336687532858,-0.065658,0.321397,0.509381
336687553985,-0.0702298,0.294245,0.519022
336687569735,-0.0748646,0.267852,0.527841
336687592909,-0.0805841,0.242025,0.534687
336687613949,-0.0880449,0.217227,0.539787
336687636901,-0.0942017,0.193007,0.543467
336687652922,-0.0984555,0.169858,0.546234
336687673957,-0.103176,0.147481,0.547176
336687689702,-0.107917,0.126394,0.546357
336687712859,-0.110664,0.106692,0.544205
336687733975,-0.111067,0.0876542,0.540798
336687756487,-0.111787,0.0692455,0.535645
336687772907,-0.113111,0.0521321,0.527945
336687793972,-0.112687,0.0378488,0.517912
336687809748,-0.110263,0.0258843,0.506023
336687832923,-0.107867,0.0152375,0.491542
336687854002,-0.106319,0.00561461,0.474521
336687869759,-0.104624,-0.00194086,0.455678
336687892906,-0.102304,-0.00790568,0.435166
336687913984,-0.0990644,-0.0130274,0.41387
336687929729,-0.0961988,-0.0180433,0.391374
336687952880,-0.0938164,-0.022944,0.367544
336687974009,-0.090957,-0.0279213,0.342291
336687989756,-0.0875612,-0.0334326,0.315968
336688012258,-0.083282,-0.0397273,0.289067
336688033750,-0.0794135,-0.0463181,0.262607
336688049782,-0.0756816,-0.0532766,0.235946
336688072264,-0.0731605,-0.0606356,0.208623
336688094016,-0.0718542,-0.0673334,0.180851
336688109825,-0.0698219,-0.0731817,0.153154
336688132298,-0.068361,-0.0783118,0.126087
336688155463,-0.0696933,-0.0829075,0.0991389
336688169774,-0.0721934,-0.0862914,0.071842
336688192258,-0.0740149,-0.0880209,0.0456921
336688215487,-0.0754755,-0.089162,0.0206098
336688229782,-0.0790352,-0.0899635,-0.00365519
336688266473,-0.0840904,-0.0901363,-0.0273939
336688275559,-0.0892549,-0.0885331,-0.0496196
336688296634,-0.093968,-0.0863339,-0.0698329
336688312304,-0.0984495,-0.084359,-0.0878619
336688335499,-0.104629,-0.0822408,-0.104502
336688356530,-0.111424,-0.0800415,-0.119315
336688372333,-0.116762,-0.0774664,-0.132012
336688395562,-0.121478,-0.0751314,-0.142294
336688416622,-0.126753,-0.0732299,-0.150337
336688432310,-0.131695,-0.0721457,-0.155773
336688456224,-0.13545,-0.0716674,-0.158635
336688476572,-0.138769,-0.0715819,-0.158785
336688492324,-0.143104,-0.0722236,-0.15603
336688515563,-0.147823,-0.0737852,-0.150614
336688536307,-0.152997,-0.0754049,-0.142714
336688552327,-0.158906,-0.0766007,-0.132484
336688575556,-0.165335,-0.0768067,-0.119598
336688596657,-0.172159,-0.0758886,-0.104341
336688612342,-0.179302,-0.0744892,-0.0874063
336688635449,-0.186595,-0.072851,-0.0691388
336688656487,-0.193915,-0.0703975,-0.0500989
336688672395,-0.201993,-0.0675552,-0.0296127
336688695562,-0.210949,-0.0659722,-0.00738181
336688716610,-0.220335,-0.0653578,0.0165713
336688732343,-0.230205,-0.0651339,0.0426972
336688755552,-0.238813,-0.0645074,0.0704869
336688776538,-0.246657,-0.0638302,0.100124
336688792298,-0.253585,-0.0642526,0.131513
336688805936,-0.259412,-0.0655493,0.164889
336688828335,-0.264486,-0.0673355,0.199488
336688851608,-0.270675,-0.0686511,0.234658
336688865884,-0.277309,-0.0700715,0.270111
336688888431,-0.283056,-0.0719462,0.305458
336688911600,-0.287993,-0.0740023,0.340299
336688925939,-0.291678,-0.0755465,0.374095
336688948409,-0.294266,-0.0769477,0.406426
336688971612,-0.297107,-0.0788673,0.437075
336688985914,-0.299293,-0.081343,0.465471
336689008409,-0.299903,-0.0839902,0.490835
336689031619,-0.299854,-0.086657,0.512918
336689045936,-0.299116,-0.0904725,0.531103
336689068427,-0.298277,-0.0954913,0.544767
336689091603,-0.298121,-0.10077,0.554455
336689105954,-0.298469,-0.105629,0.56068
336689128416,-0.298196,-0.109605,0.564261
336689151635,-0.297934,-0.112797,0.565014
336689165980,-0.298604,-0.115875,0.563804
336689188428,-0.299872,-0.118247,0.561766
336689211649,-0.301726,-0.119533,0.559861
336689225946,-0.304021,-0.119973,0.558494
336689248400,-0.305924,-0.120216,0.55758
336689271320,-0.30709,-0.120872,0.557047
336689285966,-0.308519,-0.121404,0.55691
336689308407,-0.310258,-0.121711,0.556751
336689331572,-0.311642,-0.121422,0.556077
336689345887,-0.312171,-0.121134,0.553382
336689368407,-0.314211,-0.119954,0.550435
336689391619,-0.316976,-0.11907,0.548647
336689405939,-0.317328,-0.117491,0.546496
336689428447,-0.319041,-0.115445,0.543991
336689451623,-0.320585,-0.114356,0.54332
336689465962,-0.321546,-0.113879,0.543984
336689488456,-0.321649,-0.112966,0.543826
336689511652,-0.322126,-0.111791,0.543019
336689525967,-0.323811,-0.111189,0.542322
336689548476,-0.323879,-0.111029,0.542278
336689571619,-0.324195,-0.111416,0.541743
336689585975,-0.324932,-0.111641,0.54072
336689608332,-0.324948,-0.111018,0.538815
336689631623,-0.326443,-0.109735,0.536935
336689645951,-0.327916,-0.108685,0.535363
336689668474,-0.32773,-0.108097,0.532658
336689691625,-0.329488,-0.106279,0.529683
336689705908,-0.330974,-0.10512,0.529765
336689728457,-0.330274,-0.105033,0.530708
336689751616,-0.329847,-0.105407,0.530591
336689765904,-0.329221,-0.105918,0.529223
336689788381,-0.330389,-0.105021,0.52802
336689811627,-0.331861,-0.104385,0.527909
336689825951,-0.332069,-0.104207,0.527902
336689848492,-0.331799,-0.104351,0.527382
336689871599,-0.331619,-0.104594,0.526133
336689885955,-0.331716,-0.104429,0.526248
336689908414,-0.331093,-0.104527,0.527481
336689931709,-0.330195,-0.1046,0.528562
336689945992,-0.328155,-0.105535,0.528545
336689968503,-0.327139,-0.107069,0.526919
336689991560,-0.329076,-0.107245,0.526622
336690005910,-0.329198,-0.107215,0.526632
336690028456,-0.329183,-0.107133,0.525455
336690051024,-0.330578,-0.107357,0.523336
336690065984,-0.332141,-0.107043,0.521896
336690088405,-0.3333,-0.106315,0.521371
336690104822,-0.333228,-0.106081,0.521317
336690125982,-0.333162,-0.106411,0.520993
336690148466,-0.33302,-0.107404,0.520652
336690164928,-0.332836,-0.108251,0.52039
336690185910,-0.332443,-0.108206,0.520464
336690208488,-0.331654,-0.107629,0.520541
336690224917,-0.331218,-0.107878,0.520554
336690245949,-0.331156,-0.108695,0.520302
336690268543,-0.331278,-0.108665,0.520312
336690284908,-0.331356,-0.108317,0.520768
336690305980,-0.331356,-0.108317,0.520768
336690328416,-0.331356,-0.108317,0.520768
336690350997,-0.331478,-0.108287,0.520778
336690365952,-0.331422,-0.107988,0.521092
336690388464,-0.330996,-0.108219,0.521237
336690404948,-0.331118,-0.108189,0.521247
336690425993,-0.330996,-0.108219,0.521237
336690448539,-0.331118,-0.108189,0.521247
336690470933,-0.331102,-0.108177,0.521221
336690485957,-0.331188,-0.10803,0.521204
336690508426,-0.330964,-0.107738,0.521008
336690524843,-0.331086,-0.107708,0.521018
336690546059,-0.331086,-0.107708,0.521018
336690568484,-0.331208,-0.107678,0.521028
336690584966,-0.331173,-0.107561,0.521001
336690606169,-0.331077,-0.107508,0.521491
336690628426,-0.331251,-0.10753,0.521896
336690644930,-0.331191,-0.107595,0.522413
336690665907,-0.331313,-0.107564,0.522423
336690688539,-0.331313,-0.107564,0.522423
336690704903,-0.3314,-0.107417,0.522406
336690726087,-0.3314,-0.107417,0.522406
336690748520,-0.331094,-0.107225,0.522464
336690764887,-0.331216,-0.107195,0.522474
336690786028,-0.330993,-0.10722,0.522717
336690808501,-0.330556,-0.106859,0.523239
336690824898,-0.330079,-0.106744,0.523936
336690847398,-0.329446,-0.106937,0.524693
336690868426,-0.32941,-0.107207,0.526257
336690884942,-0.328732,-0.107765,0.528104
336690907425,-0.328512,-0.10818,0.52994
336690929993,-0.328306,-0.109111,0.531742
336690944869,-0.326574,-0.109414,0.53278
336690967402,-0.326405,-0.109858,0.533624
336690988468,-0.327172,-0.110731,0.535006
336691004955,-0.327324,-0.110691,0.536672
336691027510,-0.327164,-0.110508,0.538159
336691048420,-0.326562,-0.110477,0.538611
336691064876,-0.326525,-0.11036,0.538584
336691087354,-0.327207,-0.110654,0.538081
336691108520,-0.328933,-0.112062,0.53851
336691124906,-0.329205,-0.114019,0.539525
336691147399,-0.32969,-0.115098,0.540021
336691168481,-0.32969,-0.115098,0.540021
336691184901,-0.329649,-0.114329,0.539241
336691207358,-0.329783,-0.113798,0.538262
336691228576,-0.330115,-0.113758,0.537896
336691244908,-0.330359,-0.113696,0.537917
336691267459,-0.330105,-0.113271,0.537824
336691288481,-0.329952,-0.113138,0.538024
336691304912,-0.329822,-0.113334,0.538693
336691327476,-0.328619,-0.114022,0.538821
336691348573,-0.327944,-0.114506,0.538443
336691364957,-0.328066,-0.114475,0.538454
336691387436,-0.328393,-0.114846,0.538054
336691408512,-0.328291,-0.11494,0.536784
336691424990,-0.329404,-0.1152,0.535663
336691447437,-0.330309,-0.11564,0.534551
336691468461,-0.331121,-0.116029,0.533931
336691484907,-0.332189,-0.115975,0.53326
336691507431,-0.332509,-0.116031,0.53242
336691528548,-0.332909,-0.115182,0.53126
336691544913,-0.333284,-0.114926,0.530613
336691567435,-0.334382,-0.115156,0.530649
336691588513,-0.334382,-0.115156,0.530649
336691604920,-0.334598,-0.115178,0.530168
336691627488,-0.334749,-0.114803,0.528955
336691648401,-0.336242,-0.114495,0.529319
336691664928,-0.336348,-0.114452,0.529303
336691687485,-0.336825,-0.114712,0.529417
336691708501,-0.337348,-0.114848,0.529225
336691724937,-0.337348,-0.114848,0.529225
336691747612,-0.337384,-0.114066,0.52921
336691769965,-0.33759,-0.113354,0.529366
336691786429,-0.337075,-0.113341,0.529429
336691807459,-0.337075,-0.113341,0.529429
336691829908,-0.336615,-0.113093,0.529341
336691844959,-0.336615,-0.113093,0.529341
336691867488,-0.336728,-0.113225,0.530029
336691889938,-0.336341,-0.113134,0.53034
336691904129,-0.335957,-0.113291,0.52994
336691926715,-0.335977,-0.113474,0.529598
336691949176,-0.336099,-0.113444,0.529608
336691965580,-0.336099,-0.113444,0.529608
336691986711,-0.336099,-0.113444,0.529608
336692009231,-0.335536,-0.11341,0.529169
336692025655,-0.3354,-0.113677,0.528422
336692046718,-0.336002,-0.114077,0.528178
336692069190,-0.336002,-0.114077,0.528178
336692085610,-0.336124,-0.114047,0.528189
336692106686,-0.336088,-0.11393,0.528161
336692129198,-0.336204,-0.113948,0.527934
336692145616,-0.335849,-0.114021,0.528035
336692166737,-0.335902,-0.114072,0.528432
336692189189,-0.335902,-0.114072,0.528432
336692205644,-0.335902,-0.114072,0.528432
336692226739,-0.335902,-0.114072,0.528432
336692249244,-0.336025,-0.114041,0.528442
336692265614,-0.336025,-0.114041,0.528442
336692286393,-0.336025,-0.114041,0.528442
336692309275,-0.336025,-0.114041,0.528442
336692325638,-0.33613,-0.113999,0.528426
336692346710,-0.336016,-0.11384,0.528915
336692369203,-0.336016,-0.11384,0.528915
336692385638,-0.336139,-0.11381,0.528925
336692406769,-0.336139,-0.11381,0.528925
336692429224,-0.336247,-0.113548,0.529515
336692445660,-0.335411,-0.113555,0.530074
336692466630,-0.334847,-0.113807,0.530181
336692489166,-0.334847,-0.113807,0.530181
336692505631,-0.335006,-0.113893,0.530219
336692526657,-0.335092,-0.113746,0.530202
336692549244,-0.335279,-0.113749,0.530741
336692565648,-0.335279,-0.113749,0.530741
336692586751,-0.334748,-0.113438,0.53023
336692610632,-0.334479,-0.113078,0.529767
336692625676,-0.334479,-0.113078,0.529767
336692646736,-0.334601,-0.113048,0.529777
336692669194,-0.334601,-0.113048,0.529777
336692685656,-0.334638,-0.113165,0.529805
336692706713,-0.334601,-0.113048,0.529777
336692729204,-0.334723,-0.113017,0.529788
336692744907,-0.334707,-0.113005,0.529761
336692766700,-0.334382,-0.113244,0.529652
336692789264,-0.334504,-0.113213,0.529663
336692805045,-0.334504,-0.113213,0.529663
336692826709,-0.334731,-0.113504,0.529861
336692849267,-0.334731,-0.113504,0.529861
336692865006,-0.334694,-0.113387,0.529834
336692886762,-0.334694,-0.113387,0.529834
336692909257,-0.334817,-0.113356,0.529844
336692924998,-0.334817,-0.113356,0.529844
336692948192,-0.334853,-0.113473,0.529872
336692969246,-0.334976,-0.113443,0.529882
336692984956,-0.334976,-0.113443,0.529882
336693008127,-0.334976,-0.113443,0.529882
336693029276,-0.334694,-0.113387,0.529834
336693045001,-0.334211,-0.113539,0.529687
336693068145,-0.334333,-0.113508,0.529697
336693089270,-0.334333,-0.113508,0.529697
336693104930,-0.334805,-0.113738,0.529916
336693128106,-0.334805,-0.113738,0.529916
336693149380,-0.334805,-0.113738,0.529916
336693164992,-0.334504,-0.113213,0.529663
336693188149,-0.334504,-0.113213,0.529663
336693209192,-0.334627,-0.113183,0.529673
336693224955,-0.334627,-0.113183,0.529673
336693248108,-0.334627,-0.113183,0.529673
336693269222,-0.33459,-0.113066,0.529646
336693285168,-0.33459,-0.113066,0.529646
336693308145,-0.334627,-0.113183,0.529673
336693329211,-0.334627,-0.113183,0.529673
336693345015,-0.334627,-0.113183,0.529673
336693368223,-0.334627,-0.113183,0.529673
336693389240,-0.334749,-0.113152,0.529683
336693405116,-0.334749,-0.113152,0.529683
336693428159,-0.334749,-0.113152,0.529683
336693449269,-0.334739,-0.112806,0.529347
336693465035,-0.335001,-0.112394,0.52919
336693488183,-0.335001,-0.112394,0.52919
336693509251,-0.335349,-0.111756,0.529358
336693525006,-0.335472,-0.111725,0.529369
336693548209,-0.335349,-0.111756,0.529358
336693569286,-0.335455,-0.111713,0.529342
336693585029,-0.335483,-0.111707,0.529501
336693608131,-0.335466,-0.111695,0.529474
336693629214,-0.336231,-0.111599,0.529669
336693644959,-0.336231,-0.111599,0.529669
336693667539,-0.336231,-0.111599,0.529669
336693689263,-0.336194,-0.111482,0.529641
336693705054,-0.336194,-0.111482,0.529641
336693727573,-0.336353,-0.111568,0.529679
336693749248,-0.336353,-0.111568,0.529679
336693765072,-0.336317,-0.111451,0.529651
336693787573,-0.336439,-0.111421,0.529662
336693809288,-0.336341,-0.11195,0.529752
336693825052,-0.336341,-0.11195,0.529752
336693847577,-0.336341,-0.11195,0.529752
336693870703,-0.336463,-0.111919,0.529762
336693885019,-0.336427,-0.111802,0.529734
336693907556,-0.336427,-0.111802,0.529734
336693930672,-0.336427,-0.111802,0.529734
336693945108,-0.336549,-0.111772,0.529744
336693967552,-0.336463,-0.111919,0.529762
336693990707,-0.336532,-0.11176,0.529718
336694005033,-0.336162,-0.111681,0.530055
336694027552,-0.335505,-0.111593,0.530107
336694050714,-0.335627,-0.111563,0.530117
336694065023,-0.336772,-0.111813,0.530654
336694087513,-0.336936,-0.112578,0.531338
336694110639,-0.337058,-0.112548,0.531349
336694125001,-0.336695,-0.111772,0.531171
336694148015,-0.336208,-0.111245,0.530378
336694170699,-0.335391,-0.110927,0.529583
336694184996,-0.335957,-0.111209,0.529311
336694207543,-0.335948,-0.111907,0.529825
336694230686,-0.335999,-0.111787,0.53059
336694245038,-0.335697,-0.111911,0.531088
336694267534,-0.335599,-0.112441,0.531177
336694290742,-0.335599,-0.112441,0.531177
336694305000,-0.335599,-0.112441,0.531177
336694327508,-0.335845,-0.112016,0.530994
336694350654,-0.335967,-0.111985,0.531004
336694371775,-0.336035,-0.111826,0.53096
336694390248,-0.33606,-0.112324,0.53106
336694410691,-0.336665,-0.112505,0.531422
336694431860,-0.336611,-0.113103,0.531777
336694447506,-0.336611,-0.113103,0.531777
336694470678,-0.336611,-0.113103,0.531777
336694491724,-0.336611,-0.113103,0.531777
336694507533,-0.336611,-0.113103,0.531777
336694530680,-0.336733,-0.113072,0.531787
336694551942,-0.336733,-0.113072,0.531787
336694567908,-0.336733,-0.113072,0.531787
336694590671,-0.336855,-0.113041,0.531798
336694611752,-0.336795,-0.113688,0.531916
336694627500,-0.336795,-0.113688,0.531916
336694650041,-0.336795,-0.113688,0.531916
336694671732,-0.336917,-0.113657,0.531926
336694687599,-0.336917,-0.113657,0.531926
336694710050,-0.336917,-0.113657,0.531926
336694731756,-0.336917,-0.113657,0.531926
336694747590,-0.336917,-0.113657,0.531926
336694770023,-0.336917,-0.113657,0.531926
336694793247,-0.337023,-0.113614,0.53191
336694807576,-0.337023,-0.113614,0.53191
336694830038,-0.337023,-0.113614,0.53191
336694853148,-0.337023,-0.113614,0.53191
336694867649,-0.337023,-0.113614,0.53191
336694891138,-0.33706,-0.113731,0.531938
336694913279,-0.33706,-0.113731,0.531938
336694927546,-0.33706,-0.113731,0.531938
336694950025,-0.337182,-0.113701,0.531948
336694973185,-0.337182,-0.113701,0.531948
336694987548,-0.337182,-0.113701,0.531948
336695010110,-0.337182,-0.113701,0.531948
336695023616,-0.337219,-0.113818,0.531976
336695046862,-0.337219,-0.113818,0.531976
336695061111,-0.337182,-0.113701,0.531948
336695083560,-0.337219,-0.113818,0.531976
336695106740,-0.337341,-0.113787,0.531986
336695121129,-0.337341,-0.113787,0.531986
336695143630,-0.337341,-0.113787,0.531986
336695166779,-0.337341,-0.113787,0.531986
336695181066,-0.337341,-0.113787,0.531986
336695203602,-0.337341,-0.113787,0.531986
336695226816,-0.337341,-0.113787,0.531986
336695241116,-0.337304,-0.11367,0.531959
336695263666,-0.337304,-0.11367,0.531959
336695286825,-0.337304,-0.11367,0.531959
336695301136,-0.337304,-0.11367,0.531959
336695323623,-0.337341,-0.113787,0.531986
336695346803,-0.337463,-0.113756,0.531997
336695361129,-0.337427,-0.113639,0.531969
336695383617,-0.337427,-0.113639,0.531969
336695406831,-0.337427,-0.113639,0.531969
336695421078,-0.337427,-0.113639,0.531969
336695443642,-0.337549,-0.113609,0.531979
336695466784,-0.337409,-0.113991,0.532148
336695481131,-0.337409,-0.113991,0.532148
336695503660,-0.337446,-0.114108,0.532175
336695526860,-0.337569,-0.114077,0.532186
336695541169,-0.337569,-0.114077,0.532186
336695563658,-0.337569,-0.114077,0.532186
336695587054,-0.337691,-0.114046,0.532196
336695609325,-0.337691,-0.114046,0.532196
336695623604,-0.337691,-0.114046,0.532196
336695648757,-0.337691,-0.114046,0.532196
336695661133,-0.337813,-0.114016,0.532207
336695684408,-0.337691,-0.114046,0.532196
336695714502,-0.337813,-0.114016,0.532207
336695722820,-0.337813,-0.114016,0.532207
336695746586,-0.337936,-0.113985,0.532217
336695767846,-0.337936,-0.113985,0.532217
336695788972,-0.337936,-0.113985,0.532217
336695807232,-0.337936,-0.113985,0.532217
336695826726,-0.337936,-0.113985,0.532217
336695844340,-0.337973,-0.114102,0.532245
336695863637,-0.338095,-0.114071,0.532255
336695887527,-0.338078,-0.114059,0.532229
336695905579,-0.338078,-0.114059,0.532229
336695927521,-0.338217,-0.113677,0.532061
336695947398,-0.338297,-0.113499,0.532149
336695961268,-0.338192,-0.113542,0.532165
336695985271,-0.338314,-0.113512,0.532175
336696006151,-0.338297,-0.113499,0.532149
336696021156,-0.338419,-0.113469,0.532159
336696043679,-0.338456,-0.113586,0.532187
336696066179,-0.338456,-0.113586,0.532187
336696081127,-0.338579,-0.113555,0.532197
336696103649,-0.338579,-0.113555,0.532197
336696126163,-0.338701,-0.113524,0.532208
336696141184,-0.338701,-0.113524,0.532208
336696163697,-0.338701,-0.113524,0.532208
336696186122,-0.338824,-0.113494,0.532218
336696201160,-0.338787,-0.113377,0.53219
336696223653,-0.338787,-0.113377,0.53219
336696246178,-0.338787,-0.113377,0.53219
336696261187,-0.338909,-0.113346,0.532201
336696283978,-0.338909,-0.113346,0.532201
336696306158,-0.338946,-0.113463,0.532228
336696321164,-0.338946,-0.113463,0.532228
336696343714,-0.338909,-0.113346,0.532201
336696366179,-0.339051,-0.11342,0.532212
336696381189,-0.339051,-0.11342,0.532212
336696404808,-0.339051,-0.11342,0.532212
336696426200,-0.339051,-0.11342,0.532212
336696441159,-0.339051,-0.11342,0.532212
336696463693,-0.339051,-0.11342,0.532212
336696486309,-0.339174,-0.11339,0.532223
336696502641,-0.339174,-0.11339,0.532223
336696523677,-0.339174,-0.11339,0.532223
336696546166,-0.339174,-0.11339,0.532223
336696562620,-0.339174,-0.11339,0.532223
336696583669,-0.339174,-0.11339,0.532223
336696606211,-0.339296,-0.113359,0.532233
336696622861,-0.339296,-0.113359,0.532233
336696644687,-0.339296,-0.113359,0.532233
336696666179,-0.339296,-0.113359,0.532233
336696682617,-0.339296,-0.113359,0.532233
336696703669,-0.339296,-0.113359,0.532233
336696726315,-0.339296,-0.113359,0.532233
336696744650,-0.339418,-0.113328,0.532244
336696763894,-0.339418,-0.113328,0.532244
336696786212,-0.339418,-0.113328,0.532244
336696802647,-0.339418,-0.113328,0.532244
336696823708,-0.339418,-0.113328,0.532244
336696846329,-0.339418,-0.113328,0.532244
336696868644,-0.339418,-0.113328,0.532244
336696883681,-0.339418,-0.113328,0.532244
336696906164,-0.339418,-0.113328,0.532244
336696922644,-0.339541,-0.113298,0.532254
336696943703,-0.339541,-0.113298,0.532254
336696966242,-0.339541,-0.113298,0.532254
336696982625,-0.339541,-0.113298,0.532254
336697011899,-0.339663,-0.113267,0.532264
336697026242,-0.339663,-0.113267,0.532264
336697042632,-0.339663,-0.113267,0.532264
336697063726,-0.339646,-0.113255,0.532238
336697086205,-0.339663,-0.113267,0.532264
336697102656,-0.339768,-0.113224,0.532248
336697123686,-0.339768,-0.113224,0.532248
336697146263,-0.339768,-0.113224,0.532248
336697162613,-0.339768,-0.113224,0.532248
336697183700,-0.339731,-0.113107,0.53222
336697206151,-0.339731,-0.113107,0.53222
336697222659,-0.339731,-0.113107,0.53222
336697243666,-0.339731,-0.113107,0.53222
336697266241,-0.339854,-0.113077,0.532231
336697282629,-0.339854,-0.113077,0.532231
336697303681,-0.339854,-0.113077,0.532231
336697326326,-0.339854,-0.113077,0.532231
336697342666,-0.339976,-0.113046,0.532241
336697363690,-0.339951,-0.112911,0.532345
336697386281,-0.339951,-0.112911,0.532345
336697402657,-0.339951,-0.112911,0.532345
336697423699,-0.339939,-0.112929,0.532213
336697446231,-0.339976,-0.113046,0.532241
336697462623,-0.339951,-0.112911,0.532345
336697485114,-0.339951,-0.112911,0.532345
336697506193,-0.339951,-0.112911,0.532345
336697522635,-0.34011,-0.112997,0.532384
336697545150,-0.34011,-0.112997,0.532384
336697566196,-0.34011,-0.112997,0.532384
336697582657,-0.340099,-0.113015,0.532252
336697605224,-0.34011,-0.112997,0.532384
336697626249,-0.34011,-0.112997,0.532384
336697642663,-0.34011,-0.112997,0.532384
336697665148,-0.340232,-0.112967,0.532394
336697686218,-0.340232,-0.112967,0.532394
336697702683,-0.340232,-0.112967,0.532394
336697725204,-0.340232,-0.112967,0.532394
336697746152,-0.340232,-0.112967,0.532394
336697762701,-0.340221,-0.112985,0.532262
336697785127,-0.340221,-0.112985,0.532262
336697806210,-0.340221,-0.112985,0.532262
336697822649,-0.340221,-0.112985,0.532262
336697845125,-0.340343,-0.112954,0.532272
336697869130,-0.34038,-0.113071,0.5323
336697882680,-0.340258,-0.113102,0.53229
336697905181,-0.340258,-0.113102,0.53229
336697926239,-0.340258,-0.113102,0.53229
336697942686,-0.34038,-0.113071,0.5323
336697965190,-0.340258,-0.113102,0.53229
336697986232,-0.34038,-0.113071,0.5323
336698002706,-0.34038,-0.113071,0.5323
336698025156,-0.34038,-0.113071,0.5323
336698046219,-0.340363,-0.113059,0.532274
336698062661,-0.3404,-0.113176,0.532302
336698085192,-0.3404,-0.113176,0.532302
336698106233,-0.3404,-0.113176,0.532302
336698121906,-0.3404,-0.113176,0.532302
336698144366,-0.340522,-0.113145,0.532312
336698166896,-0.340522,-0.113145,0.532312
336698181886,-0.340522,-0.113145,0.532312
336698204365,-0.340559,-0.113262,0.53234
336698226935,-0.340559,-0.113262,0.53234
336698241898,-0.340559,-0.113262,0.53234
336698271686,-0.340682,-0.113231,0.532351
336698287388,-0.340559,-0.113262,0.53234
336698302335,-0.340559,-0.113262,0.53234
336698324413,-0.340559,-0.113262,0.53234
336698346895,-0.340682,-0.113231,0.532351
336698361946,-0.340682,-0.113231,0.532351
336698384392,-0.340719,-0.113348,0.532379
336698406939,-0.340719,-0.113348,0.532379
336698421876,-0.340841,-0.113318,0.532389
336698444479,-0.340841,-0.113318,0.532389
336698466948,-0.340878,-0.113435,0.532417
336698481893,-0.340878,-0.113435,0.532417
336698504431,-0.340878,-0.113435,0.532417
336698527272,-0.340878,-0.113435,0.532417
336698541947,-0.340878,-0.113435,0.532417
336698564475,-0.340878,-0.113435,0.532417
336698586924,-0.340878,-0.113435,0.532417
336698603351,-0.340878,-0.113435,0.532417
336698624398,-0.340878,-0.113435,0.532417
336698646891,-0.340878,-0.113435,0.532417
336698663304,-0.341001,-0.113404,0.532428
336698684430,-0.341001,-0.113404,0.532428
336698706917,-0.341001,-0.113404,0.532428
336698723386,-0.341038,-0.113521,0.532456
336698744439,-0.341001,-0.113404,0.532428
336698760284,-0.341001,-0.113404,0.532428
336698783405,-0.341001,-0.113404,0.532428
336698804464,-0.341038,-0.113521,0.532456
336698820213,-0.341143,-0.113478,0.53244
336698843363,-0.341143,-0.113478,0.53244
336698865844,-0.341143,-0.113478,0.53244
336698880492,-0.341143,-0.113478,0.53244
336698903390,-0.341143,-0.113478,0.53244
336698924459,-0.341143,-0.113478,0.53244
336698940195,-0.341143,-0.113478,0.53244
336698963413,-0.341265,-0.113448,0.53245
336698984437,-0.341265,-0.113448,0.53245
336699000181,-0.341265,-0.113448,0.53245
336699023400,-0.341265,-0.113448,0.53245
336699044470,-0.341265,-0.113448,0.53245
336699060218,-0.341302,-0.113564,0.532478
336699083363,-0.341302,-0.113564,0.532478
336699104439,-0.341302,-0.113564,0.532478
336699120185,-0.341302,-0.113564,0.532478
336699143328,-0.341302,-0.113564,0.532478
336699164472,-0.341462,-0.113651,0.532517
336699180227,-0.341462,-0.113651,0.532517
336699203399,-0.341425,-0.113534,0.532488
336699224516,-0.341425,-0.113534,0.532488
336699240207,-0.341425,-0.113534,0.532488
336699263414,-0.341462,-0.113651,0.532517
336699284451,-0.341462,-0.113651,0.532517
336699300265,-0.341462,-0.113651,0.532517
336699323420,-0.341462,-0.113651,0.532517
336699344520,-0.341462,-0.113651,0.532517
336699360213,-0.341462,-0.113651,0.532517
336699382706,-0.341462,-0.113651,0.532517
336699404455,-0.341462,-0.113651,0.532517
336699420205,-0.341462,-0.113651,0.532517
336699442691,-0.341462,-0.113651,0.532517
336699464411,-0.341462,-0.113651,0.532517
336699480212,-0.341462,-0.113651,0.532517
336699502764,-0.341462,-0.113651,0.532517
336699526351,-0.341584,-0.11362,0.532527
336699540255,-0.341584,-0.11362,0.532527
336699562733,-0.341584,-0.11362,0.532527
336699586097,-0.341584,-0.11362,0.532527
336699600300,-0.341584,-0.11362,0.532527
336699622714,-0.341707,-0.113589,0.532537
336699645935,-0.341707,-0.113589,0.532537
336699660457,-0.341689,-0.113577,0.532511
336699682874,-0.341726,-0.113694,0.532539
336699705917,-0.341849,-0.113664,0.53255
336699720225,-0.341726,-0.113694,0.532539
336699743621,-0.341726,-0.113694,0.532539
336699772463,-0.341726,-0.113694,0.532539
336699780284,-0.341726,-0.113694,0.532539
336699802771,-0.341849,-0.113664,0.53255
336699825943,-0.341849,-0.113664,0.53255
336699840322,-0.341849,-0.113664,0.53255
336699862751,-0.341849,-0.113664,0.53255
336699885886,-0.341849,-0.113664,0.53255
336699900309,-0.341849,-0.113664,0.53255
336699922806,-0.341849,-0.113664,0.53255
336699945969,-0.341849,-0.113664,0.53255
336699960273,-0.341849,-0.113664,0.53255
336699982800,-0.341849,-0.113664,0.53255
336700005871,-0.341886,-0.11378,0.532578
336700020302,-0.341849,-0.113664,0.53255
336700042848,-0.341886,-0.11378,0.532578
336700066019,-0.341886,-0.11378,0.532578
336700087034,-0.341886,-0.11378,0.532578
336700102783,-0.341726,-0.113694,0.532539
336700125916,-0.343076,-0.114176,0.533041
336700147014,-0.345885,-0.114904,0.53346
336700162853,-0.347816,-0.114339,0.533813
336700185960,-0.347055,-0.11234,0.533106
336700207025,-0.346197,-0.107925,0.530634
336700222812,-0.345757,-0.102012,0.527304
336700245978,-0.344855,-0.0951592,0.521693
336700267025,-0.341974,-0.0867249,0.512442
336700282776,-0.336391,-0.0764368,0.496694
336700305261,-0.33076,-0.06466,0.477351
336700326947,-0.325929,-0.0525976,0.452968
336700342833,-0.321283,-0.0415738,0.425629
336700365261,-0.318415,-0.0325818,0.394954
336700387089,-0.315772,-0.0267468,0.361554
336700402836,-0.312198,-0.0254413,0.325578
336700425257,-0.309034,-0.0270837,0.287353
336700447061,-0.307081,-0.0322555,0.247962
336700462806,-0.306257,-0.0406055,0.207733
336700485316,-0.307093,-0.0521378,0.167386
336700508463,-0.310376,-0.0659719,0.127456
336700530928,-0.313088,-0.0813088,0.087684
336700545292,-0.312808,-0.0983052,0.0486738
336700568501,-0.312712,-0.116941,0.0104095
336700582758,-0.31396,-0.136589,-0.0267859
336700605250,-0.313931,-0.15686,-0.0629128
336700628405,-0.313039,-0.176524,-0.0981896
336700649593,-0.311158,-0.195545,-0.132774
336700665280,-0.308859,-0.213629,-0.166964
336700688499,-0.307118,-0.230495,-0.20006
336700709564,-0.306859,-0.245462,-0.232201
336700725253,-0.30595,-0.2587,-0.263779
336700748471,-0.303734,-0.270214,-0.294894
336700769553,-0.300096,-0.277908,-0.32417
336700785284,-0.300044,-0.283102,-0.347499
336700808499,-0.308223,-0.281443,-0.36856
336700829552,-0.311618,-0.275401,-0.389749
336700845313,-0.309572,-0.268127,-0.411985
336700868403,-0.308317,-0.258071,-0.435564
336700889463,-0.310599,-0.245145,-0.459706
336700905299,-0.312359,-0.228505,-0.485098
336700928548,-0.312274,-0.208556,-0.509995
336700949555,-0.312629,-0.185472,-0.533672
336700965283,-0.31302,-0.159164,-0.555668
336700988584,-0.313808,-0.130464,-0.575135
336701010957,-0.31782,-0.098867,-0.590746
336701025295,-0.32216,-0.0636597,-0.601854
336701048499,-0.32732,-0.024646,-0.609576
336701069558,-0.331046,0.0168108,-0.614536
336701085261,-0.330172,0.0605994,-0.614778
336701108508,-0.328383,0.105622,-0.610865
336701129548,-0.328612,0.152429,-0.604161
336701145317,-0.326849,0.201279,-0.594645
336701168518,-0.320094,0.251229,-0.581375
336701196993,-0.310825,0.301544,-0.565105
336701205290,-0.30214,0.350962,-0.546306
336701228517,-0.293902,0.397833,-0.524474
336701241508,-0.285049,0.441186,-0.499636
336701264550,-0.273732,0.480418,-0.471606
336701278918,-0.260838,0.515721,-0.440686
336701310206,-0.247626,0.546448,-0.407608
336701324577,-0.236821,0.572333,-0.374667
336701339026,-0.219837,0.596036,-0.338101
336701361400,-0.199212,0.615969,-0.297885
336701384656,-0.181326,0.632157,-0.25712
336701398854,-0.165747,0.644262,-0.215534
336701421356,-0.14514,0.65144,-0.17018
336701444563,-0.123072,0.653814,-0.122495
336701458868,-0.102277,0.652688,-0.0750304
336701481381,-0.0817215,0.646576,-0.0271386
336701504560,-0.0617356,0.634944,0.0205872
336701518962,-0.0442965,0.619501,0.0667283
336701541447,-0.0290809,0.599998,0.112728
336701564562,-0.0156937,0.575193,0.158985
336701578912,-0.00319959,0.545643,0.205066
336701601400,0.00545429,0.513893,0.248425
336701624641,0.012687,0.480636,0.287092
336701648517,0.0200846,0.446983,0.322112
336701661393,0.0214187,0.411615,0.354303
336701684545,0.0174444,0.372953,0.38613
336701698870,0.0103106,0.333293,0.417664
336701721451,0.00297145,0.293863,0.448535
336701744575,-0.0072461,0.253987,0.478547
336701758920,-0.0192087,0.214038,0.506529
336701781397,-0.0298194,0.175958,0.531655
336701804540,-0.0422834,0.138681,0.554517
336701818906,-0.0562166,0.100721,0.575589
336701841367,-0.0677157,0.0637138,0.595434
336701864596,-0.0787198,0.0288975,0.612976
336701878896,-0.0915979,-0.00453156,0.628035
336701901416,-0.102482,-0.0355542,0.639842
336701924567,-0.111323,-0.0643521,0.648191
336701938854,-0.121615,-0.0901703,0.65242
336701961387,-0.130294,-0.112418,0.651489
336701984567,-0.133859,-0.131015,0.646276
336701998917,-0.140822,-0.146328,0.63786
336702021425,-0.154234,-0.157668,0.62731
336702044532,-0.167328,-0.16546,0.615116
336702058907,-0.177826,-0.170252,0.602031
336702081437,-0.186846,-0.173211,0.588527
336702104604,-0.195852,-0.175083,0.573896
336702118941,-0.203206,-0.175301,0.558524
336702141379,-0.212535,-0.174018,0.544268
336702164630,-0.224036,-0.171466,0.532117
336702178892,-0.235271,-0.168314,0.523432
336702201481,-0.243874,-0.165202,0.51825
336702224574,-0.251577,-0.162026,0.516384
336702238980,-0.255593,-0.159643,0.517123
336702261476,-0.260178,-0.157332,0.520477
336702284688,-0.26526,-0.154868,0.527449
336702298964,-0.268181,-0.152181,0.537433
336702321451,-0.269539,-0.149744,0.54885
336702344626,-0.272134,-0.146998,0.559721
336702358982,-0.274414,-0.143879,0.570017
336702381477,-0.275555,-0.141474,0.579897
336702403887,-0.277078,-0.139689,0.589196
336702418954,-0.278838,-0.139272,0.596907
336702441464,-0.281242,-0.139184,0.602452
336702463881,-0.284058,-0.139098,0.605869
336702478940,-0.286562,-0.138047,0.608166
336702501410,-0.289427,-0.135931,0.609826
336702523911,-0.290962,-0.134244,0.611122
336702538967,-0.292537,-0.133314,0.611678
336702561444,-0.294632,-0.133078,0.611476
336702583987,-0.29602,-0.134047,0.611804
336702599005,-0.296008,-0.136208,0.612312
336702621505,-0.29617,-0.138213,0.612544
336702643917,-0.296528,-0.139806,0.612319
336702658919,-0.29713,-0.140769,0.612562
336702681483,-0.297093,-0.141008,0.612714
336702704008,-0.296878,-0.140883,0.612297
336702719010,-0.296561,-0.140932,0.610579
336702741520,-0.296228,-0.141612,0.608069
336702763989,-0.297292,-0.142866,0.605962
336702779011,-0.297763,-0.144065,0.604529
336702801523,-0.298624,-0.145348,0.602811
336702823980,-0.300778,-0.146386,0.600786
336702838930,-0.30385,-0.146785,0.59953
336702861693,-0.30588,-0.147322,0.599891
336702883927,-0.30685,-0.149086,0.600056
336702899021,-0.307995,-0.150917,0.599358
336702921484,-0.309555,-0.151387,0.598214
336702943976,-0.311371,-0.150605,0.597141
336702958937,-0.312979,-0.149049,0.596406
336702981519,-0.314327,-0.148199,0.595903
336702997947,-0.315648,-0.147217,0.595506
336703018924,-0.3165,-0.146357,0.595197
336703041460,-0.317776,-0.145035,0.595358
336703057988,-0.319521,-0.14394,0.596654
336703079108,-0.320222,-0.143511,0.59926
336703101551,-0.319353,-0.142229,0.601892
336703117936,-0.317493,-0.140777,0.603211
336703140440,-0.316637,-0.139764,0.603068
336703161543,-0.316946,-0.139535,0.602003
336703177886,-0.316948,-0.139375,0.601338
336703200437,-0.315836,-0.140562,0.600766
336703221547,-0.3144,-0.142432,0.598873
336703237859,-0.314469,-0.14394,0.594375
336703260371,-0.318186,-0.143439,0.590086
336703281594,-0.321021,-0.142652,0.588867
336703297979,-0.321775,-0.143289,0.589196
336703320418,-0.322261,-0.145803,0.588815
336703341505,-0.322691,-0.147677,0.587534
336703364043,-0.322444,-0.148381,0.585827
336703380482,-0.323378,-0.148563,0.583522
336703401511,-0.326716,-0.147973,0.58175
336703417876,-0.329081,-0.146759,0.581961
336703440454,-0.330859,-0.145418,0.583072
336703461483,-0.332577,-0.143441,0.585243
336703477877,-0.332079,-0.140865,0.58779
336703500374,-0.327926,-0.138427,0.589683
336703521525,-0.326646,-0.137997,0.589835
336703537931,-0.326974,-0.138359,0.589436
336703560432,-0.324786,-0.138881,0.589256
336703581701,-0.32349,-0.139831,0.588887
336703597932,-0.322128,-0.142287,0.587243
336703620367,-0.32394,-0.144446,0.583853
336703641466,-0.326183,-0.144266,0.581516
336703657872,-0.328306,-0.144239,0.582037
336703680476,-0.329465,-0.147286,0.583775
336703701728,-0.329795,-0.149661,0.584645
336703718013,-0.32938,-0.149891,0.583858
336703740415,-0.330901,-0.148417,0.582102
336703761531,-0.332623,-0.146532,0.580926
336703777909,-0.333764,-0.145318,0.580698
336703806634,-0.336097,-0.144092,0.581781
336703821645,-0.337709,-0.141945,0.583513
336703844041,-0.337227,-0.13881,0.585445
336703860390,-0.335349,-0.136793,0.5869
336703881646,-0.334637,-0.135828,0.587798
336703897939,-0.333702,-0.135848,0.588588
336703920491,-0.330991,-0.137017,0.588754
336703941648,-0.32977,-0.140103,0.588802
336703957882,-0.328601,-0.14333,0.586804
336703980522,-0.331117,-0.145717,0.583308
336704003034,-0.334282,-0.145438,0.582475
336704018004,-0.334935,-0.146028,0.58421
336704040521,-0.334916,-0.148667,0.585741
336704061642,-0.333554,-0.150333,0.585121
336704077932,-0.333021,-0.150644,0.583179
336704100422,-0.335188,-0.149612,0.581434
336704122948,-0.337286,-0.148148,0.581169
336704137955,-0.339299,-0.146786,0.582063
336704160462,-0.339935,-0.145537,0.583058
336704182908,-0.340584,-0.143704,0.58355
336704197932,-0.341259,-0.141667,0.584682
336704220410,-0.340504,-0.139365,0.586581
336704242978,-0.337877,-0.137861,0.587931
336704258027,-0.336115,-0.138146,0.58763
336704280403,-0.335535,-0.139462,0.586903
336704302968,-0.333215,-0.142393,0.585762
336704318655,-0.332796,-0.144987,0.583103
336704339691,-0.335517,-0.145639,0.58047
336704362274,-0.337131,-0.14578,0.580682
336704378574,-0.337376,-0.148484,0.582134
336704399750,-0.337471,-0.151722,0.583041
336704422184,-0.336171,-0.153053,0.582748
336704438616,-0.335942,-0.152935,0.581263
336704459714,-0.337302,-0.151938,0.579173
336704482241,-0.338427,-0.151074,0.576847
336704498611,-0.340225,-0.150587,0.574909
336704519655,-0.341577,-0.149597,0.573722
336704542204,-0.342508,-0.147855,0.573101
336704558656,-0.342159,-0.147202,0.572933
336704579666,-0.342094,-0.147152,0.572529
336704602219,-0.3422,-0.147702,0.573043
336704618666,-0.342189,-0.148304,0.572512
336704639763,-0.343638,-0.146658,0.569534
336704662214,-0.343919,-0.142041,0.561077
336704684801,-0.338366,-0.134571,0.543548
336704699675,-0.32601,-0.124622,0.513698
336704722260,-0.317065,-0.110947,0.473704
336704745245,-0.314499,-0.0950585,0.426668
336704759681,-0.312824,-0.081636,0.375629
336704782153,-0.309784,-0.0723883,0.320982
336704806219,-0.303325,-0.066306,0.265848
336704819776,-0.28858,-0.0638739,0.21116
336704842266,-0.269982,-0.0651736,0.155903
336704864660,-0.249067,-0.0683084,0.101893
336704879738,-0.225559,-0.0750687,0.0523969
336704902293,-0.200856,-0.0866116,0.00885614
336704924775,-0.175879,-0.100868,-0.03159
336704939817,-0.151603,-0.118609,-0.0705906
336704962266,-0.126561,-0.134972,-0.108453
336704984740,-0.10025,-0.148969,-0.145493
336704999690,-0.0766279,-0.158171,-0.182672
336705022295,-0.0566543,-0.160245,-0.220479
336705044762,-0.0420104,-0.15341,-0.256737
336705061177,-0.0364435,-0.140022,-0.289522
336705082203,-0.037019,-0.117622,-0.317146
336705104709,-0.0375771,-0.0835358,-0.340541
336705119858,-0.0406808,-0.0425077,-0.359263
336705142262,-0.0451769,0.00240684,-0.373018
336705158035,-0.0478161,0.0496954,-0.382749
336705179788,-0.0511911,0.0984891,-0.389185
336705202272,-0.0538998,0.148456,-0.390909
336705217957,-0.0542093,0.198545,-0.387519
336705241178,-0.0524063,0.249034,-0.379126
336705262242,-0.0497317,0.299728,-0.366809
336705278075,-0.0461513,0.349478,-0.350533
336705301125,-0.0417129,0.398327,-0.329405
336705322251,-0.0344737,0.444722,-0.303004
336705338062,-0.0224853,0.487389,-0.271539
336705361097,-0.00681701,0.523234,-0.23486
336705382155,0.0147407,0.549794,-0.191094
336705397941,0.0424265,0.566104,-0.141783
336705421229,0.0713271,0.574418,-0.0915591
336705442257,0.0984685,0.575591,-0.0434877
336705457964,0.124981,0.569072,0.00309279
336705481165,0.148247,0.554441,0.0468381
336705502279,0.165534,0.533278,0.0866989
336705518027,0.180399,0.505411,0.122781
336705541206,0.191739,0.474739,0.1524
336705562300,0.201242,0.443536,0.174491
336705578072,0.209203,0.409082,0.190309
336705601179,0.213962,0.373401,0.197871
336705622299,0.213516,0.337102,0.197009
336705638089,0.212556,0.301499,0.190368
336705661242,0.211326,0.268803,0.176821
336705682277,0.208118,0.236841,0.155822
336705698075,0.200706,0.203904,0.126334
336705721128,0.184873,0.167206,0.0903489
336705749817,0.160743,0.129839,0.0531828
336705758005,0.137891,0.0938879,0.0194728
336705781164,0.125219,0.0565064,-0.00967015
336705802300,0.116715,0.0173926,-0.0360361
336705818100,0.10561,-0.0214821,-0.0609203
336705841252,0.0974237,-0.0574333,-0.0841283
336705862274,0.0972905,-0.0941263,-0.103359
336705878082,0.0995155,-0.132075,-0.118104
336705901177,0.0969595,-0.169692,-0.129139
336705922217,0.0900606,-0.204853,-0.137467
336705938060,0.0842441,-0.23719,-0.139941
336705961156,0.0809704,-0.267266,-0.136454
336705982275,0.0759062,-0.292611,-0.126454
336705998028,0.0713955,-0.312826,-0.11196
336706020563,0.0673691,-0.32561,-0.094889
336706042335,0.0620195,-0.332717,-0.0764328
336706066225,0.054807,-0.336858,-0.0563943
336706089446,0.0451526,-0.33837,-0.0344702
336706102235,0.0354928,-0.337142,-0.0113664
336706118040,0.0276635,-0.331663,0.0114609
336706140547,0.0209473,-0.322354,0.0332052
336706163690,0.0133831,-0.309432,0.0536379
336706178051,0.00407769,-0.293729,0.0717199
336706200592,-0.00739563,-0.275209,0.0871878
336706223659,-0.0170933,-0.254177,0.0999335
336706238101,-0.0259191,-0.231625,0.111587
336706260503,-0.0321577,-0.206594,0.121478
336706283683,-0.0358524,-0.176916,0.128525
336706304791,-0.0380962,-0.144697,0.131134
336706320625,-0.0441731,-0.108028,0.130251
336706343731,-0.0516016,-0.067107,0.126064
336706364819,-0.0560541,-0.0216866,0.116447
336706380562,-0.061805,0.0278123,0.100557
336706403720,-0.0725303,0.0808506,0.0782596
336706424778,-0.0876715,0.134043,0.0526543
336706440585,-0.101969,0.188902,0.0243402
336706471206,-0.11571,0.243741,-0.00741358
336706486224,-0.133999,0.297512,-0.0417604
336706500507,-0.150589,0.347995,-0.0749937
336706523756,-0.163193,0.395032,-0.105305
336706544790,-0.176733,0.439578,-0.132767
336706560526,-0.1904,0.481872,-0.156293
336706583736,-0.197326,0.522,-0.173894
336706604763,-0.196376,0.558852,-0.183648
336706620580,-0.192806,0.59083,-0.186937
336706643737,-0.183667,0.619349,-0.182502
336706664845,-0.167009,0.643746,-0.168553
336706680591,-0.143806,0.661902,-0.144479
336706703736,-0.116167,0.672915,-0.112048
336706724805,-0.0844747,0.677117,-0.0728935
336706740559,-0.0509786,0.673944,-0.030673
336706763710,-0.0166084,0.664721,0.0128615
336706784828,0.0169947,0.650625,0.0553365
336706800621,0.0455153,0.630229,0.0946063
336706823682,0.0709663,0.605281,0.131494
336706844868,0.0898785,0.577609,0.163715
336706860498,0.0996171,0.548608,0.189206
336706883738,0.102674,0.520994,0.207748
336706904804,0.102896,0.490261,0.221732
336706920618,0.0921364,0.458739,0.229944
336706943114,0.0737556,0.425661,0.234942
336706964850,0.0538555,0.390412,0.240807
336706980612,0.0305896,0.354881,0.24806
336707003082,0.00246553,0.320947,0.256453
336707024890,-0.0251174,0.28691,0.268185
336707040577,-0.0529126,0.252868,0.28306
336707063077,-0.0822789,0.217947,0.300703
336707084824,-0.110394,0.183422,0.31948
336707101094,-0.133065,0.14997,0.34044
336707123037,-0.153021,0.117459,0.36649
336707146187,-0.171859,0.0846859,0.398799
336707160515,-0.191156,0.0515535,0.435168
336707183147,-0.209951,0.0198575,0.471841
336707206203,-0.224385,-0.00744768,0.505023
336707220629,-0.236822,-0.0312297,0.533251
336707243094,-0.246916,-0.0528888,0.557103
336707266276,-0.253256,-0.0735142,0.57594
336707287317,-0.260787,-0.0896835,0.589347
336707303136,-0.2689,-0.101538,0.598515
336707326279,-0.276869,-0.111484,0.604416
336707347341,-0.286001,-0.120514,0.607427
336707363102,-0.294866,-0.127457,0.610176
336707386295,-0.299711,-0.132015,0.613684
336707407070,-0.300544,-0.138888,0.616008
336707423090,-0.302568,-0.145233,0.615541
336707436717,-0.301038,-0.149986,0.612548
336707459195,-0.30114,-0.151965,0.609169
336707474160,-0.303722,-0.151596,0.604887
336707496666,-0.305955,-0.149449,0.600262
336707519146,-0.312921,-0.147229,0.597494
336707542406,-0.324559,-0.147065,0.599019
336707556644,-0.330728,-0.149103,0.603797
336707579159,-0.331997,-0.149986,0.608518
336707602324,-0.332786,-0.149388,0.611114
336707616690,-0.335406,-0.148281,0.613171
336707639875,-0.335102,-0.147045,0.616011
336707654171,-0.334356,-0.145903,0.619213
336707676738,-0.332666,-0.14483,0.622033
336707699846,-0.328848,-0.144275,0.62312
336707714174,-0.325549,-0.143978,0.622408
336707736689,-0.324737,-0.144437,0.61991
336707759872,-0.324062,-0.145664,0.616429
336707774208,-0.324235,-0.148534,0.613366
336707796695,-0.32766,-0.151606,0.611
336707819887,-0.331364,-0.152183,0.609116
336707834118,-0.336827,-0.149748,0.608331
336707856637,-0.343462,-0.147043,0.610334
336707879943,-0.348736,-0.146508,0.614399
336707894171,-0.348603,-0.148839,0.61745
336707916725,-0.348656,-0.149888,0.618184
336707939812,-0.348641,-0.149737,0.618423
336707954428,-0.347312,-0.149304,0.620349
336707976723,-0.345179,-0.148303,0.623509
336707999806,-0.339913,-0.147484,0.626068
336708022531,-0.330948,-0.146749,0.626991
336708036761,-0.320483,-0.150066,0.62381
336708059204,-0.316681,-0.155878,0.618553
336708082435,-0.320171,-0.161776,0.615446
336708096797,-0.325062,-0.163681,0.616315
336708119229,-0.329217,-0.162724,0.619675
336708134147,-0.331496,-0.16131,0.623729
336708156640,-0.333321,-0.162019,0.627766
336708179198,-0.333038,-0.165536,0.630351
336708194188,-0.332818,-0.16735,0.630923
336708216736,-0.331729,-0.165752,0.630723
336708239171,-0.330525,-0.163388,0.630621
336708254273,-0.329812,-0.162262,0.630063
336708276675,-0.330344,-0.161361,0.629553
336708299220,-0.330103,-0.159706,0.628965
336708314312,-0.328676,-0.157799,0.628931
336708336722,-0.326395,-0.157387,0.629455
336708359261,-0.323976,-0.15962,0.630062
336708374153,-0.323553,-0.161472,0.631924
336708396689,-0.324229,-0.163125,0.634684
336708419407,-0.323334,-0.1653,0.637039
336708434210,-0.322506,-0.166774,0.636814
336708456685,-0.322067,-0.167845,0.634741
336708479220,-0.323712,-0.168711,0.632269
336708494221,-0.327913,-0.169032,0.63083
336708516748,-0.331627,-0.168365,0.631093
336708539247,-0.332457,-0.167498,0.631693
336708554202,-0.331331,-0.167141,0.631975
336708576651,-0.33076,-0.16729,0.632184
336708599230,-0.330101,-0.166838,0.632275
336708614139,-0.330134,-0.166004,0.632656
336708636788,-0.33113,-0.164776,0.632545
336708659249,-0.3324,-0.16261,0.632946
336708674214,-0.331654,-0.160928,0.633569
336708696717,-0.329478,-0.160696,0.633478
336708719260,-0.329624,-0.162025,0.633115
336708734230,-0.330036,-0.163792,0.633642
336708756760,-0.33101,-0.164026,0.634472
336708779262,-0.331072,-0.163489,0.634371
336708795625,-0.331392,-0.162258,0.634054
336708816788,-0.330945,-0.161963,0.633414
336708839177,-0.330315,-0.162437,0.632378
336708855671,-0.329989,-0.162498,0.630781
336708876771,-0.329864,-0.161569,0.629288
336708899223,-0.330324,-0.160452,0.628745
336708915611,-0.330643,-0.159827,0.628806
336708936763,-0.329507,-0.159282,0.628528
336708959154,-0.329551,-0.159398,0.628559
336708975690,-0.330605,-0.15828,0.62953
336708996747,-0.329409,-0.155885,0.631514
336709019268,-0.328447,-0.153789,0.633579
336709035733,-0.324894,-0.150207,0.632576
336709056760,-0.320344,-0.143364,0.62814
336709079248,-0.317724,-0.136677,0.622824
336709095661,-0.316564,-0.131764,0.615711
336709116801,-0.316811,-0.127567,0.606056
336709139248,-0.32007,-0.123443,0.596118
336709155700,-0.322245,-0.119016,0.586254
336709176756,-0.323195,-0.114366,0.577145
336709199227,-0.323794,-0.109974,0.567155
336709215630,-0.324219,-0.105613,0.55742
336709236752,-0.325207,-0.101435,0.54983
336709259265,-0.325431,-0.0984933,0.544962
336709275799,-0.324245,-0.0953727,0.540451
336709296730,-0.323332,-0.0914124,0.535809
336709319311,-0.321293,-0.087623,0.530496
336709335658,-0.319867,-0.0853655,0.52575
336709356788,-0.320266,-0.085522,0.52237
336709379324,-0.320224,-0.0858555,0.519352
336709395693,-0.320633,-0.0848578,0.516794
336709416737,-0.320679,-0.083992,0.51562
336709439247,-0.320073,-0.0830342,0.514511
336709455685,-0.319924,-0.0817943,0.513649
336709476670,-0.318595,-0.0821779,0.513345
336709499274,-0.317998,-0.0820783,0.514171
336709515626,-0.317979,-0.0828484,0.515975
336709536750,-0.317907,-0.0849493,0.517476
336709559298,-0.318456,-0.0883493,0.517705
336709575681,-0.319992,-0.0908713,0.517139
336709596762,-0.321169,-0.0922412,0.516192
336709619312,-0.321663,-0.0925517,0.515017
336709635663,-0.322696,-0.0918722,0.514349
336709656731,-0.323343,-0.0914484,0.514326
336709679273,-0.32343,-0.0913015,0.514309
336709695723,-0.322891,-0.0911515,0.514485
336709716704,-0.322351,-0.0905136,0.514594
336709739294,-0.321672,-0.0902869,0.514761
336709763158,-0.321584,-0.0904339,0.514778
336709778226,-0.321584,-0.0904339,0.514778
336709800725,-0.321584,-0.0904339,0.514778
336709815676,-0.32169,-0.0903937,0.514761
336709838174,-0.320879,-0.0902146,0.514788
336709859249,-0.320773,-0.0902547,0.514806
336709875654,-0.320814,-0.0905415,0.514462
336709898128,-0.320848,-0.0906587,0.514487
336709919335,-0.320814,-0.0905415,0.514462
336709935717,-0.320814,-0.0905415,0.514462
336709958218,-0.320814,-0.0905415,0.514462
336709979274,-0.320691,-0.0905714,0.514453
336709995760,-0.320814,-0.0905415,0.514462
336710018220,-0.320814,-0.0905415,0.514462
336710039263,-0.319942,-0.0901106,0.514571
336710055710,-0.319321,-0.0897894,0.514329
336710078189,-0.31917,-0.0893834,0.51386
336710099255,-0.318741,-0.0892664,0.513678
336710115751,-0.31875,-0.089249,0.513809
336710138181,-0.318757,-0.0897648,0.513769
336710159236,-0.319044,-0.0903381,0.513773
336710175681,-0.318922,-0.0903679,0.513764
336710198222,-0.319044,-0.0903381,0.513773
336710219242,-0.318922,-0.0903679,0.513764
336710235683,-0.319314,-0.0909011,0.513751
336710258262,-0.319314,-0.0909011,0.513751
336710279365,-0.31888,-0.0902232,0.513844
336710295769,-0.318513,-0.0898245,0.513752
336710318222,-0.318391,-0.0898544,0.513743
336710339206,-0.318391,-0.0898544,0.513743
336710355775,-0.318887,-0.0902508,0.513739
336710378233,-0.319009,-0.0902209,0.513748
336710399309,-0.318319,-0.0896651,0.513456
336710415752,-0.318152,-0.0891069,0.513225
336710438272,-0.31803,-0.0891368,0.513216
336710459280,-0.318544,-0.0896402,0.513211
336710475747,-0.319462,-0.0901262,0.513495
336710498200,-0.319427,-0.090009,0.513469
336710519292,-0.319155,-0.089491,0.513255
336710535727,-0.318916,-0.0892319,0.512803
336710557431,-0.31832,-0.0882099,0.512061
336710579967,-0.317652,-0.0867391,0.511875
336710595062,-0.31748,-0.0861534,0.511751
336710617440,-0.317358,-0.0861832,0.511742
336710640036,-0.318232,-0.0880104,0.511748
336710654962,-0.319519,-0.0889687,0.511781
336710677508,-0.320449,-0.0896526,0.511591
336710699939,-0.321311,-0.0896144,0.511284
336710715057,-0.322193,-0.0891498,0.511148
336710738100,-0.321582,-0.0888102,0.511037
336710759898,-0.321548,-0.0886931,0.511012
336710776441,-0.32101,-0.0888885,0.511518
336710797515,-0.32101,-0.0888885,0.511518
336710819985,-0.321044,-0.0890056,0.511543
336710835058,-0.320223,-0.0884966,0.511111
336710857454,-0.319673,-0.0879205,0.510854
336710879975,-0.318812,-0.0871243,0.510767
336710894981,-0.318066,-0.0866174,0.511123
336710917486,-0.317226,-0.0865768,0.511931
336710940011,-0.316479,-0.0880439,0.511996
336710956479,-0.317352,-0.090751,0.51216
336710977470,-0.318698,-0.0929825,0.51201
336710999981,-0.319712,-0.0935646,0.511569
336711016446,-0.320252,-0.0928353,0.511234
336711037483,-0.320349,-0.0926709,0.511349
336711059885,-0.319964,-0.0920467,0.511834
336711076376,-0.319811,-0.0917723,0.5123
336711097517,-0.319098,-0.091916,0.512509
336711119998,-0.31901,-0.092063,0.512525
336711136406,-0.31901,-0.092063,0.512525
336711157476,-0.31901,-0.092063,0.512525
336711180023,-0.31901,-0.092063,0.512525
336711203939,-0.319133,-0.0920332,0.512534
336711217517,-0.319133,-0.0920332,0.512534
336711239999,-0.319133,-0.0920332,0.512534
336711256435,-0.319462,-0.0923601,0.512365
336711277410,-0.319584,-0.0923303,0.512374
336711300015,-0.319462,-0.0923601,0.512365
336711316397,-0.319584,-0.0923303,0.512374
336711337672,-0.319462,-0.0923601,0.512365
336711360018,-0.319928,-0.0928093,0.511968
336711376388,-0.320317,-0.0933882,0.51172
336711397542,-0.321422,-0.0937786,0.5115
336711419983,-0.321948,-0.0944804,0.511024
336711436461,-0.323254,-0.0953202,0.510157
336711457494,-0.323789,-0.0958754,0.50888
336711480097,-0.323434,-0.0958904,0.507707
336711496439,-0.321023,-0.0947746,0.505505
336711517519,-0.317329,-0.0920301,0.49923
336711540017,-0.315201,-0.0880765,0.486266
336711556447,-0.315946,-0.0842085,0.468264
336711578952,-0.315076,-0.0791383,0.446547
336711600016,-0.30725,-0.0731286,0.414652
336711616411,-0.299151,-0.0588669,0.370342
336711637435,-0.2987,-0.0414825,0.316522
336711659888,-0.30435,-0.0233728,0.2562
336711675730,-0.311424,-0.00644625,0.193205
336711697468,-0.318432,0.00752176,0.132289
336711720049,-0.325606,0.0141587,0.0771155
336711735787,-0.332493,0.00806766,0.0355336
336711757477,-0.327938,-0.00814421,0.0143389
336711780024,-0.316816,-0.047524,0.0143942
336711795783,-0.293651,-0.109175,0.0298797
336711817538,-0.252822,-0.180947,0.0485108
336711840022,-0.197352,-0.259408,0.0614507
336711862452,-0.127596,-0.332774,0.0690867
336711878935,-0.0549923,-0.38648,0.0653951
336711900054,0.0147482,-0.416964,0.0500399
336711915757,0.0704875,-0.426022,0.0194874
336711938906,0.0885147,-0.428875,-0.0225423
336711959960,0.0636704,-0.429038,-0.0610033
336711975810,0.0265446,-0.41793,-0.0997573
336712006448,0.00666783,-0.387314,-0.142485
336712019950,-0.00275842,-0.340241,-0.184708
336712035781,-0.0265412,-0.281282,-0.224339
336712058961,-0.0751491,-0.215436,-0.257675
336712087472,-0.132144,-0.140758,-0.286198
336712095785,-0.185247,-0.0601072,-0.308085
336712118974,-0.223527,0.0229373,-0.320601
336712147482,-0.239856,0.102087,-0.320812
336712155766,-0.241693,0.176857,-0.311274
336712178986,-0.230583,0.245505,-0.290917
336712200030,-0.205317,0.306985,-0.257205
336712215774,-0.167332,0.354432,-0.208456
336712238754,-0.119779,0.38564,-0.14621
336712259983,-0.0643758,0.399228,-0.0735948
336712275774,-0.00378604,0.395636,0.00222897
336712298976,0.0550818,0.377538,0.0760545
336712320064,0.107666,0.348205,0.143399
336712335832,0.150063,0.308849,0.202768
336712366266,0.184266,0.263278,0.251476
336712382909,0.212169,0.221616,0.285901
336712395804,0.236517,0.187853,0.304322
336712426500,0.260415,0.17046,0.30613
336712440097,0.267591,0.167017,0.293023
336712455793,0.248028,0.177111,0.263899
336712478908,0.208316,0.199266,0.219803
336712500010,0.156638,0.229734,0.161816
336712515725,0.0967395,0.262083,0.0913003
336712539024,0.0273645,0.290057,0.0125099
336712561403,-0.0463302,0.309968,-0.0694106
336712575783,-0.119232,0.318322,-0.146929
336712598970,-0.186214,0.314326,-0.214913
336712620026,-0.242063,0.29996,-0.270806
336712635831,-0.282121,0.27272,-0.31105
336712658311,-0.304167,0.233099,-0.332223
336712680138,-0.312232,0.18185,-0.337619
336712695773,-0.305611,0.123183,-0.33084
336712718311,-0.276572,0.0578538,-0.312536
336712739988,-0.234198,-0.00571228,-0.288314
336712763910,-0.190754,-0.0647328,-0.261452
336712778350,-0.148359,-0.117734,-0.231283
336712800026,-0.111248,-0.1671,-0.197639
336712815816,-0.072201,-0.214865,-0.163059
336712838335,-0.0332668,-0.257999,-0.132313
336712861499,0.00129853,-0.293249,-0.105739
336712875872,0.036404,-0.321994,-0.0831123
336712898307,0.0672589,-0.345069,-0.0629328
336712921460,0.101199,-0.366673,-0.0479927
336712935825,0.137448,-0.385484,-0.0428233
336712958365,0.162908,-0.40748,-0.0437365
336712987563,0.185549,-0.434892,-0.0492694
336713004038,0.216168,-0.461974,-0.0588442
336713018366,0.254372,-0.481506,-0.0717672
336713041526,0.288425,-0.493638,-0.0849747
336713062623,0.317073,-0.497768,-0.096903
336713078405,0.339953,-0.492024,-0.10796
336713101563,0.356503,-0.473019,-0.120836
336713122613,0.363287,-0.439238,-0.135202
336713138409,0.355271,-0.386882,-0.150531
336713161567,0.332802,-0.322957,-0.165961
336713182618,0.293576,-0.248065,-0.181957
336713198314,0.246327,-0.159741,-0.199835
336713221571,0.194362,-0.0630135,-0.219936
336713242610,0.135924,0.0365606,-0.237323
336713258334,0.078144,0.134526,-0.250469
336713281571,0.0326876,0.228816,-0.259732
336713302626,0.000240228,0.314617,-0.265718
336713318321,-0.021265,0.389456,-0.264733
336713341597,-0.0358411,0.451181,-0.253855
336713362583,-0.039083,0.501862,-0.234075
336713378361,-0.034697,0.542656,-0.21097
336713402152,-0.0349276,0.575081,-0.188038
336713422539,-0.0290452,0.607137,-0.157118
336713438352,-0.00793027,0.639575,-0.11288
336713461967,0.019507,0.667453,-0.0596553
336713482610,0.0503491,0.688011,0.00299976
336713498366,0.0920778,0.694059,0.078541
336713521592,0.125861,0.680288,0.156463
336713542630,0.150002,0.648954,0.232706
336713558343,0.170828,0.600344,0.305584
336713580837,0.183128,0.541245,0.366733
336713603979,0.192764,0.479582,0.415354
336713618386,0.201455,0.413712,0.455938
336713640871,0.207844,0.346426,0.488028
336713662617,0.211145,0.284707,0.512011
336713677582,0.217193,0.228838,0.530467
336713691965,0.228329,0.182808,0.543121
336713714453,0.240762,0.146318,0.548504
336713737685,0.251878,0.120945,0.545007
336713751953,0.265119,0.105645,0.53212
336713774434,0.280117,0.0957066,0.5086
336713797572,0.294507,0.0927758,0.473649
336713811937,0.301785,0.0959725,0.426401
336713834438,0.304409,0.0996688,0.370544
336713857620,0.299156,0.0995732,0.309866
336713871926,0.284061,0.0953614,0.246501
336713894424,0.262327,0.0890511,0.182411
336713917623,0.237338,0.0786931,0.115732
336713931962,0.210941,0.0663206,0.0463267
336713954455,0.186197,0.0497144,-0.0216014
336713977637,0.164599,0.023935,-0.0864926
336713992031,0.146867,-0.00758193,-0.150272
336714014436,0.123,-0.0376339,-0.215063
336714037627,0.0872441,-0.0630956,-0.277072
336714051989,0.0482169,-0.0889012,-0.331682
336714075948,0.0153317,-0.119706,-0.382084
336714097596,-0.0128803,-0.157499,-0.428781
336714111889,-0.0338524,-0.193075,-0.471169
336714134410,-0.0495131,-0.229377,-0.50335
336714157643,-0.0493663,-0.261613,-0.523335
336714171926,-0.0369299,-0.288407,-0.533223
336714194451,-0.0248202,-0.306911,-0.535184
336714217542,-0.0149653,-0.318559,-0.528003
336714231974,-0.00196082,-0.328657,-0.508888
336714254509,0.028002,-0.342456,-0.480735
336714277613,0.0704913,-0.353827,-0.447319
336714291951,0.118866,-0.363884,-0.40847
336714314441,0.166846,-0.375517,-0.363663
336714337612,0.213369,-0.390132,-0.31326
336714352028,0.258468,-0.405426,-0.259295
336714374482,0.297707,-0.417677,-0.206044
336714397629,0.327415,-0.426845,-0.154337
336714412002,0.34598,-0.436914,-0.103804
336714434385,0.356923,-0.451065,-0.052589
336714458077,0.368829,-0.466612,-0.00429152
336714471956,0.38293,-0.482255,0.0384932
336714494458,0.396136,-0.504036,0.0718241
336714517654,0.410366,-0.525961,0.0880833
336714531882,0.419798,-0.545157,0.0921636
336714554505,0.43085,-0.558535,0.0849635
336714577601,0.454269,-0.567094,0.0620291
336714591950,0.47233,-0.574071,0.0263971
336714614491,0.4802,-0.578598,-0.0181808
336714637625,0.484237,-0.581872,-0.0701365
336714651974,0.494895,-0.580034,-0.12719
336714674475,0.50624,-0.573403,-0.184354
336714696956,0.508056,-0.563685,-0.239792
336714711920,0.495464,-0.550973,-0.29377
336714734451,0.46762,-0.533898,-0.34313
336714756968,0.427685,-0.511619,-0.386576
336714771926,0.378521,-0.484566,-0.420367
336714794493,0.327989,-0.451721,-0.443957
336714816964,0.279862,-0.413282,-0.461479
336714831954,0.226429,-0.36869,-0.472254
336714854460,0.165147,-0.319424,-0.475522
336714876994,0.10557,-0.265276,-0.471273
336714891988,0.0583729,-0.207762,-0.462113
336714914515,0.0195434,-0.145697,-0.450969
336714937033,-0.016826,-0.0809055,-0.436762
336714951944,-0.0432425,-0.0173801,-0.416677
336714974528,-0.0518798,0.0421637,-0.389594
336714996933,-0.0463525,0.0983414,-0.359916
336715011980,-0.0284512,0.150243,-0.327257
336715034507,-0.000735657,0.193729,-0.288663
336715057003,0.0333462,0.22593,-0.243806
336715071977,0.0686985,0.24692,-0.193903
336715094479,0.105695,0.256891,-0.141173
336715116952,0.140654,0.257276,-0.0870686
336715131930,0.175446,0.246173,-0.0304678
336715154436,0.206014,0.221159,0.0270306
336715176937,0.228747,0.185981,0.083628
336715191928,0.244752,0.143264,0.139422
336715214440,0.256802,0.0930991,0.193393
336715236963,0.261233,0.0392539,0.243871
336715252613,0.260212,-0.0151107,0.291209
336715274500,0.253155,-0.0735773,0.337642
336715296934,0.236996,-0.129702,0.382204
336715311919,0.212972,-0.17965,0.42375
336715334464,0.183607,-0.219594,0.462491
336715356961,0.152799,-0.251573,0.498622
336715372004,0.122094,-0.277495,0.53327
336715394478,0.0913562,-0.294325,0.56429
336715416935,0.0631297,-0.302266,0.590828
336715431944,0.0367923,-0.304025,0.613342
336715454459,0.0149857,-0.302395,0.631728
336715476991,-0.00504236,-0.298132,0.647163
336715493408,-0.0220653,-0.291732,0.6595
336715514441,-0.0346722,-0.284608,0.668762
336715536972,-0.0433268,-0.279188,0.674914
336715553428,-0.0510072,-0.276224,0.67923
336715574487,-0.0574472,-0.274287,0.68237
336715596987,-0.0613061,-0.271916,0.684192
336715613368,-0.0622417,-0.269511,0.684939
336715634456,-0.0635593,-0.268771,0.68416
336715656959,-0.0674374,-0.270507,0.68223
336715673396,-0.0735392,-0.272014,0.680136
336715694460,-0.0784056,-0.273308,0.677336
336715716944,-0.0830252,-0.274035,0.673405
336715733420,-0.0892691,-0.273839,0.669527
336715754473,-0.0947466,-0.272475,0.666701
336715777042,-0.0971435,-0.269043,0.665567
336715793427,-0.098925,-0.267525,0.664518
336715814539,-0.105717,-0.269808,0.663699
336715837050,-0.112342,-0.272676,0.663854
336715853406,-0.11406,-0.273525,0.664596
336715874619,-0.113045,-0.273461,0.665727
336715897027,-0.115505,-0.273154,0.666356
336715913652,-0.118994,-0.272355,0.666282
336715934489,-0.119423,-0.272076,0.666317
336715957144,-0.118635,-0.272873,0.666153
336715973437,-0.11941,-0.27327,0.666062
336715994487,-0.120232,-0.275074,0.666373
336716017003,-0.119765,-0.277197,0.666927
336716033419,-0.120632,-0.278736,0.668163
336716054484,-0.119707,-0.278773,0.668789
336716070936,-0.119589,-0.278813,0.668774
336716093443,-0.122598,-0.28002,0.668607
336716114559,-0.125106,-0.280749,0.668848
336716130948,-0.127842,-0.278098,0.668975
336716153440,-0.130817,-0.272887,0.668991
336716174606,-0.134336,-0.266827,0.670314
336716190935,-0.137657,-0.261201,0.671883
336716213431,-0.139206,-0.256701,0.67289
336716234489,-0.140521,-0.252967,0.673185
336716250967,-0.139431,-0.251925,0.672797
336716273486,-0.137883,-0.253513,0.671676
336716294531,-0.139059,-0.256687,0.670264
336716310996,-0.139995,-0.259293,0.668623
336716333436,-0.140373,-0.260702,0.665349
336716354573,-0.143417,-0.261088,0.661438
336716370901,-0.148359,-0.260047,0.657903
336716393441,-0.153291,-0.258501,0.655519
336716416023,-0.158713,-0.256747,0.654191
336716430910,-0.162521,-0.254464,0.653724
336716453512,-0.164267,-0.251025,0.65344
336716475992,-0.165635,-0.246753,0.654295
336716491014,-0.165699,-0.241666,0.656113
336716513587,-0.164741,-0.238294,0.65672
336716535986,-0.164432,-0.237785,0.655841
336716551006,-0.163966,-0.238947,0.653437
336716573504,-0.163897,-0.239037,0.651883
336716595956,-0.163973,-0.237115,0.650774
336716612444,-0.164641,-0.234587,0.649784
336716633462,-0.166779,-0.230711,0.647807
336716655963,-0.167255,-0.22646,0.645921
336716672519,-0.165657,-0.223279,0.644144
336716693500,-0.166021,-0.222558,0.642933
336716716028,-0.168507,-0.222286,0.642872
336716732459,-0.168808,-0.221622,0.643875
336716753477,-0.167847,-0.221894,0.644676
336716775132,-0.169605,-0.222984,0.645311
336716797771,-0.169973,-0.223732,0.646091
336716812728,-0.169943,-0.223967,0.647174
336716835254,-0.171622,-0.224271,0.648211
336716857769,-0.172441,-0.224343,0.649241
336716872685,-0.172677,-0.224266,0.649268
336716895208,-0.173038,-0.224678,0.648972
336716917699,-0.173031,-0.224454,0.648576
336716932770,-0.172869,-0.222941,0.648351
336716955288,-0.173412,-0.221555,0.649173
336716970960,-0.173648,-0.221327,0.649565
336716992784,-0.174202,-0.221696,0.648905
336717015161,-0.174705,-0.222591,0.648427
336717030951,-0.174591,-0.223513,0.649047
336717052696,-0.175172,-0.22432,0.65029
336717075158,-0.175516,-0.224942,0.65119
336717090980,-0.175395,-0.225226,0.651463
336717112758,-0.174939,-0.225374,0.65155
336717135242,-0.174939,-0.225374,0.65155
336717151029,-0.174939,-0.225374,0.65155
336717172740,-0.175334,-0.225114,0.651298
336717195246,-0.175676,-0.224911,0.650545
336717211640,-0.175497,-0.225142,0.649636
336717232789,-0.175443,-0.225199,0.649136
336717255224,-0.175561,-0.225161,0.649149
336717271696,-0.175517,-0.225043,0.649124
336717292762,-0.175099,-0.225444,0.64884
336717315165,-0.17474,-0.226109,0.648356
336717331658,-0.174469,-0.226857,0.648287
336717352656,-0.174513,-0.226975,0.648311
336717375293,-0.174587,-0.226819,0.6483
336717391004,-0.175,-0.226554,0.648188
336717412756,-0.175118,-0.226515,0.648202
336717435215,-0.17528,-0.226443,0.648605
336717450991,-0.175615,-0.225408,0.648919
336717472740,-0.175734,-0.224199,0.649059
336717495259,-0.175729,-0.223164,0.64879
336717510968,-0.17672,-0.222467,0.648318
336717534112,-0.177609,-0.221804,0.647972
336717557136,-0.177783,-0.220843,0.647882
336717570964,-0.178376,-0.220101,0.648391
336717594197,-0.179177,-0.220329,0.648916
336717615294,-0.179625,-0.220672,0.649401
336717631082,-0.180158,-0.219926,0.650428
336717654191,-0.180595,-0.219435,0.651977
336717675160,-0.180608,-0.21897,0.653213
336717690996,-0.180543,-0.218086,0.653095
336717714166,-0.180553,-0.217045,0.652966
336717735196,-0.180907,-0.216379,0.653448
336717750982,-0.181986,-0.2166,0.655071
336717774185,-0.181818,-0.216613,0.655686
336717795224,-0.181078,-0.21584,0.655088
336717810961,-0.180959,-0.214754,0.654153
336717834170,-0.181521,-0.214437,0.654333
336717855244,-0.182115,-0.214466,0.654794
336717871057,-0.182115,-0.214466,0.654794
336717894148,-0.181792,-0.214858,0.654274
336717915192,-0.181792,-0.214858,0.654274
336717931042,-0.181278,-0.215156,0.654515
336717954183,-0.180513,-0.215538,0.65459
336717975363,-0.180587,-0.215382,0.654578
336717991059,-0.180603,-0.215375,0.654718
336718014181,-0.180603,-0.215375,0.654718
336718035189,-0.180365,-0.2153,0.655058
336718050990,-0.180231,-0.215453,0.655588
336718074128,-0.180113,-0.215492,0.655575
336718095280,-0.180157,-0.21561,0.6556
336718111029,-0.180157,-0.21561,0.6556
336718134216,-0.180039,-0.215648,0.655587
336718155250,-0.180157,-0.21561,0.6556
336718170980,-0.180201,-0.215727,0.655624
336718194216,-0.180201,-0.215727,0.655624
336718215187,-0.180201,-0.215727,0.655624
336718231048,-0.180546,-0.215992,0.655554
336718254229,-0.181039,-0.216604,0.655698
336718275261,-0.181297,-0.217293,0.655818
336718291015,-0.181371,-0.217795,0.656045
336718313595,-0.181323,-0.217923,0.656307
336718335209,-0.181374,-0.218262,0.656729
336718351067,-0.18165,-0.218547,0.657068
336718373559,-0.18165,-0.218547,0.657068
336718395201,-0.181784,-0.218502,0.657221
336718410972,-0.181784,-0.218502,0.657221
336718433565,-0.181943,-0.218826,0.657547
336718455319,-0.182293,-0.219505,0.65743
336718471044,-0.182508,-0.220076,0.657526
336718493501,-0.182508,-0.220076,0.657526
336718516749,-0.183075,-0.220378,0.658027
336718531440,-0.183481,-0.220754,0.658124
336718553511,-0.183529,-0.221133,0.658468
336718576669,-0.183529,-0.221133,0.658468
336718591005,-0.183862,-0.221665,0.658578
336718613511,-0.183932,-0.222151,0.658777
336718636653,-0.184018,-0.222631,0.659116
336718651102,-0.184018,-0.222631,0.659116
336718680349,-0.184018,-0.222631,0.659116
336718696777,-0.184044,-0.223,0.659289
336718711003,-0.183687,-0.223361,0.659538
336718733570,-0.183892,-0.223802,0.659891
336718756720,-0.184125,-0.224367,0.660129
336718771135,-0.184312,-0.225212,0.660265
336718793602,-0.183954,-0.22637,0.660361
336718816736,-0.181801,-0.228203,0.658982
336718831058,-0.181968,-0.23022,0.657073
336718853554,-0.18376,-0.232237,0.654747
336718876738,-0.184032,-0.232722,0.653675
336718890999,-0.1839,-0.233274,0.654129
336718913591,-0.184524,-0.234069,0.654696
336718936708,-0.184526,-0.233824,0.654407
336718957846,-0.182822,-0.233138,0.653286
336718981652,-0.182457,-0.233032,0.652846
336718996733,-0.183185,-0.233306,0.652708
336719017851,-0.183185,-0.233306,0.652708
336719033628,-0.183229,-0.233424,0.652734
336719056686,-0.182449,-0.233413,0.652739
336719077755,-0.182336,-0.233469,0.652756
336719093565,-0.182455,-0.23343,0.65277
336719116779,-0.182455,-0.23343,0.65277
336719137790,-0.18241,-0.233312,0.652744
336719153597,-0.182449,-0.233413,0.652739
336719176802,-0.182567,-0.233374,0.652753
336719197812,-0.182611,-0.233492,0.652779
336719213561,-0.182611,-0.233492,0.652779
336719236099,-0.182611,-0.233492,0.652779
336719257848,-0.182611,-0.233492,0.652779
336719273560,-0.182611,-0.233492,0.652779
336719296057,-0.182731,-0.233209,0.652504
336719317827,-0.182849,-0.23317,0.652518
336719333616,-0.182893,-0.233288,0.652544
336719356077,-0.182893,-0.233288,0.652544
336719377946,-0.183111,-0.233371,0.652066
336719393656,-0.182993,-0.23341,0.652053
336719416158,-0.183582,-0.233616,0.652046
336719439272,-0.183582,-0.233616,0.652046
336719453604,-0.184639,-0.233406,0.651775
336719476077,-0.185549,-0.233266,0.651241
336719499238,-0.186413,-0.233406,0.650605
336719513648,-0.188325,-0.233209,0.649955
336719536128,-0.189845,-0.232873,0.649632
336719559261,-0.190597,-0.232257,0.649134
336719573612,-0.190953,-0.232054,0.648523
336719596079,-0.191307,-0.231435,0.647957
336719619243,-0.191684,-0.230828,0.647561
336719633639,-0.192039,-0.230054,0.647359
336719656173,-0.191791,-0.229495,0.646977
336719679288,-0.191798,-0.229512,0.647008
336719693654,-0.191791,-0.229495,0.646977
336719716063,-0.191791,-0.229495,0.646977
336719739308,-0.191433,-0.22934,0.647583
336719760358,-0.190909,-0.228844,0.647831
336719776154,-0.190543,-0.228168,0.6478
336719799237,-0.190543,-0.228168,0.6478
336719814465,-0.190543,-0.228168,0.6478
336719836071,-0.190431,-0.227409,0.647938
336719859414,-0.190224,-0.225884,0.648353
336719873596,-0.190014,-0.222928,0.648569
336719895365,-0.189181,-0.221097,0.649001
336719909684,-0.18869,-0.219931,0.649292
336719932887,-0.188998,-0.219389,0.650034
336719955367,-0.189516,-0.218906,0.651236
336719969712,-0.190037,-0.218383,0.652516
336719992949,-0.189763,-0.217651,0.6533
336720015318,-0.188792,-0.21642,0.653143
336720029743,-0.188128,-0.215094,0.652606
336720052902,-0.188419,-0.21425,0.652161
336720075415,-0.188863,-0.213607,0.651328
336720089753,-0.188869,-0.213623,0.651358
336720112916,-0.188395,-0.213622,0.651671
336720135294,-0.188413,-0.214234,0.65213
336720149747,-0.188413,-0.214234,0.65213
336720172872,-0.188295,-0.214272,0.652117
336720195396,-0.188052,-0.213974,0.652059
336720209715,-0.187929,-0.214256,0.652333
336720232888,-0.187646,-0.214719,0.652887
336720255291,-0.187334,-0.214692,0.652555
336720269748,-0.18714,-0.214268,0.652236
336720292931,-0.187742,-0.214207,0.652045
336720315311,-0.188575,-0.214313,0.652168
336720329734,-0.188575,-0.214313,0.652168
336720352182,-0.188575,-0.214313,0.652168
336720367123,-0.188575,-0.214313,0.652168
336720389702,-0.188575,-0.214313,0.652168
336720412244,-0.188531,-0.214195,0.652143
336720427229,-0.188575,-0.214313,0.652168
336720449670,-0.189088,-0.214675,0.652169
336720472202,-0.189963,-0.215296,0.652241
336720487138,-0.190284,-0.215852,0.652241
336720509629,-0.190743,-0.216876,0.652033
336720532226,-0.191542,-0.218052,0.652044
336720547256,-0.191828,-0.21902,0.651689
336720569744,-0.191737,-0.219737,0.651122
336720592201,-0.191325,-0.220709,0.65043
336720607196,-0.191198,-0.221993,0.649143
336720629696,-0.191331,-0.222707,0.647448
336720652250,-0.191714,-0.223028,0.646647
336720667207,-0.191248,-0.22371,0.646263
336720689724,-0.191127,-0.224302,0.64581
336720712218,-0.1906,-0.224516,0.645257
336720727254,-0.189894,-0.2245,0.644888
336720749705,-0.18985,-0.224382,0.644862
336720772283,-0.189925,-0.224382,0.644487
336720787233,-0.189849,-0.224433,0.643818
336720809657,-0.189532,-0.224445,0.643406
336720832221,-0.189694,-0.224525,0.643445
336720847245,-0.189625,-0.2249,0.643854
336720869740,-0.189625,-0.2249,0.643854
336720892295,-0.189641,-0.224893,0.643994
336720907221,-0.189598,-0.224775,0.643968
336720929746,-0.189716,-0.224738,0.643982
336720952164,-0.19026,-0.224518,0.644675
336720967260,-0.19089,-0.224534,0.64542
336720989737,-0.190529,-0.224118,0.645709
336721012217,-0.190779,-0.22362,0.645921
336721027240,-0.19108,-0.223256,0.64619
336721049778,-0.191391,-0.223024,0.646205
336721072271,-0.192185,-0.222771,0.64602
336721087246,-0.192216,-0.222498,0.645981
336721109803,-0.192216,-0.222498,0.645981
336721132242,-0.192216,-0.222498,0.645981
336721148665,-0.192216,-0.222498,0.645981
336721169713,-0.191738,-0.222431,0.64553
336721192268,-0.191694,-0.222313,0.645504
336721208730,-0.191694,-0.222313,0.645504
336721229764,-0.191694,-0.222313,0.645504
336721252228,-0.191694,-0.222313,0.645504
336721268701,-0.190768,-0.222212,0.645612
336721289702,-0.190768,-0.222212,0.645612
336721312290,-0.190768,-0.222212,0.645612
336721328713,-0.190768,-0.222212,0.645612
336721349753,-0.190768,-0.222212,0.645612
336721372286,-0.190332,-0.222107,0.645551
336721388659,-0.190078,-0.222035,0.645748
336721409760,-0.190078,-0.222035,0.645748
336721432242,-0.190078,-0.222035,0.645748
336721448684,-0.189601,-0.221154,0.64542
336721469732,-0.189379,-0.220605,0.645213
336721492276,-0.189498,-0.220567,0.645226
336721508671,-0.189129,-0.220135,0.645486
336721529668,-0.188299,-0.219579,0.646482
336721552307,-0.187859,-0.219011,0.647513
336721568709,-0.187452,-0.218324,0.648144
336721589752,-0.186544,-0.21756,0.648156
336721612194,-0.185236,-0.216833,0.648025
336721628742,-0.184976,-0.216387,0.648192
336721649779,-0.185145,-0.216289,0.648704
336721672225,-0.184526,-0.216203,0.649118
336721688602,-0.183429,-0.216048,0.649084
336721709839,-0.182718,-0.215505,0.649053
336721732277,-0.182718,-0.215505,0.649053
336721748684,-0.182718,-0.215505,0.649053
336721769763,-0.182193,-0.215563,0.648867
336721792296,-0.181822,-0.215685,0.648688
336721808716,-0.181453,-0.216067,0.648825
336721829764,-0.181453,-0.216067,0.648825
336721852189,-0.181453,-0.216067,0.648825
336721868725,-0.181146,-0.215902,0.64889
336721889814,-0.18087,-0.215463,0.648918
336721912244,-0.18087,-0.215463,0.648918
336721928752,-0.180827,-0.215345,0.648893
336721949807,-0.180589,-0.215269,0.649232
336721972322,-0.180004,-0.214773,0.650007
336721988690,-0.179571,-0.214119,0.650394
336722009842,-0.179571,-0.214119,0.650394
336722032264,-0.17913,-0.213999,0.650306
336722048755,-0.179429,-0.214806,0.650448
336722069785,-0.179835,-0.215337,0.650177
336722092291,-0.180333,-0.215857,0.649669
336722108722,-0.180693,-0.216821,0.64893
336722131212,-0.182009,-0.21761,0.648042
336722152303,-0.183205,-0.218391,0.648188
336722168739,-0.183983,-0.219421,0.648417
336722197963,-0.184658,-0.219863,0.648456
336722212264,-0.185123,-0.220506,0.648354
336722228683,-0.184141,-0.222036,0.647766
336722251172,-0.186127,-0.224995,0.646365
336722272300,-0.189744,-0.228433,0.645241
336722288687,-0.190384,-0.230878,0.64477
336722311128,-0.189782,-0.233038,0.644434
336722332382,-0.19023,-0.235523,0.64433
336722348681,-0.190327,-0.237724,0.64426
336722371237,-0.189726,-0.238712,0.64404
336722392288,-0.188801,-0.238366,0.643851
336722408802,-0.188994,-0.238172,0.643853
336722431238,-0.189362,-0.236861,0.64412
336722452302,-0.189756,-0.23459,0.64504
336722468678,-0.189514,-0.232304,0.645213
336722491246,-0.18914,-0.230478,0.645188
336722512271,-0.189547,-0.229025,0.645164
336722528777,-0.189846,-0.227734,0.645838
336722551174,-0.189924,-0.227024,0.646265
336722572228,-0.190036,-0.227472,0.646855
336722588734,-0.190641,-0.228846,0.646872
336722611186,-0.191236,-0.229584,0.646536
336722632286,-0.191236,-0.229584,0.646536
336722648779,-0.191662,-0.229557,0.646854
336722671254,-0.192163,-0.229529,0.646795
336722692290,-0.192237,-0.229373,0.646783
336722708782,-0.19221,-0.229249,0.646897
336722731251,-0.192549,-0.228985,0.647161
336722752324,-0.192474,-0.229141,0.647174
336722768714,-0.192552,-0.228742,0.646873
336722791151,-0.192552,-0.228742,0.646873
336722812337,-0.192146,-0.22938,0.647019
336722828711,-0.192146,-0.22938,0.647019
336722851259,-0.191564,-0.229501,0.646328
336722872334,-0.190284,-0.226473,0.644685
336722888757,-0.190014,-0.218275,0.643427
336722911199,-0.190032,-0.209691,0.645167
336722932332,-0.194199,-0.204742,0.646389
336722948752,-0.196385,-0.201671,0.646394
336722971264,-0.191828,-0.199469,0.647063
336722992325,-0.187838,-0.199449,0.647305
336723008004,-0.189147,-0.201913,0.646883
336723030532,-0.191396,-0.205347,0.647122
336723052975,-0.192032,-0.209123,0.647947
336723067988,-0.193002,-0.21194,0.647933
336723090425,-0.193261,-0.212064,0.646691
336723113035,-0.191125,-0.211831,0.644953
336723127984,-0.191142,-0.214307,0.642683
336723150507,-0.195235,-0.216744,0.640991
336723173009,-0.195637,-0.219371,0.638405
336723187991,-0.196955,-0.220647,0.636449
336723210443,-0.198282,-0.220871,0.634328
336723233044,-0.200314,-0.222148,0.632856
336723249446,-0.200197,-0.224994,0.63167
336723270504,-0.200518,-0.226403,0.630628
336723292973,-0.201252,-0.225674,0.630247
336723309365,-0.201815,-0.224572,0.630438
336723330614,-0.202351,-0.223246,0.630063
336723352950,-0.203195,-0.222406,0.628908
336723369330,-0.204205,-0.221864,0.62819
336723390541,-0.204973,-0.220963,0.628446
336723413084,-0.205988,-0.220061,0.629515
336723429446,-0.206255,-0.219397,0.630225
336723450509,-0.206054,-0.219829,0.630511
336723472992,-0.206483,-0.220434,0.631179
336723489455,-0.206767,-0.220951,0.631947
336723510494,-0.207115,-0.220921,0.632636
336723533024,-0.207222,-0.220334,0.632945
336723549440,-0.206652,-0.21934,0.633126
336723570503,-0.206048,-0.218203,0.633391
336723592989,-0.205244,-0.216726,0.633982
336723609411,-0.205344,-0.214677,0.635018
336723630642,-0.205053,-0.211824,0.636137
336723653074,-0.203491,-0.208257,0.638267
336723669468,-0.201806,-0.202856,0.639377
336723690442,-0.201308,-0.198644,0.640571
336723713075,-0.200304,-0.197586,0.641578
336723729415,-0.200214,-0.197749,0.641452
336723750593,-0.200042,-0.199971,0.640305
336723773022,-0.202956,-0.201643,0.640418
336723789405,-0.204674,-0.203144,0.640709
336723810507,-0.205659,-0.204131,0.64072
336723833149,-0.205376,-0.205043,0.640157
336723849405,-0.206204,-0.206108,0.63977
336723870578,-0.206247,-0.207255,0.640072
336723893050,-0.206405,-0.207949,0.640433
336723909480,-0.206606,-0.208545,0.640423
336723930553,-0.206716,-0.208275,0.64001
336723953037,-0.206436,-0.20776,0.639245
336723969486,-0.2064,-0.207659,0.639249
336723990507,-0.205618,-0.208197,0.638822
336724013012,-0.20444,-0.209917,0.638245
336724028775,-0.203065,-0.212128,0.636913
336724050541,-0.203548,-0.215343,0.635356
336724073034,-0.205354,-0.218733,0.634523
336724088787,-0.206547,-0.222044,0.634135
336724110491,-0.208212,-0.224633,0.634214
336724133021,-0.209491,-0.225803,0.634048
336724148734,-0.209803,-0.226507,0.633668
336724171994,-0.209954,-0.226196,0.633642
336724193120,-0.209467,-0.224088,0.63431
336724208837,-0.209161,-0.222372,0.634439
336724231935,-0.209646,-0.221328,0.63396
336724253124,-0.209682,-0.220655,0.633993
336724268810,-0.209132,-0.220027,0.634348
336724291970,-0.20967,-0.2184,0.634721
336724313033,-0.210269,-0.217097,0.635655
336724328782,-0.209828,-0.215484,0.636393
336724352020,-0.20927,-0.213294,0.636795
336724373089,-0.208713,-0.211577,0.637914
336724388800,-0.208392,-0.210302,0.638705
336724411941,-0.208665,-0.208227,0.63924
336724432982,-0.208705,-0.2063,0.640537
336724448831,-0.206981,-0.205584,0.642024
336724472034,-0.206661,-0.205582,0.641585
336724493083,-0.206732,-0.206682,0.640308
336724508756,-0.205531,-0.208991,0.639047
336724531998,-0.206775,-0.212315,0.637993
336724553056,-0.207262,-0.215748,0.636839
336724568933,-0.208369,-0.218508,0.635322
336724591997,-0.2091,-0.221171,0.63503
336724613681,-0.20923,-0.22323,0.634678
336724628810,-0.209798,-0.22401,0.634104
336724651991,-0.209349,-0.223414,0.633292
336724673050,-0.210009,-0.222939,0.6336
336724689001,-0.210068,-0.222889,0.634127
336724712013,-0.209979,-0.222335,0.634794
336724733105,-0.210359,-0.221098,0.63584
336724748977,-0.210216,-0.220389,0.637412
336724772127,-0.209418,-0.219758,0.638749
336724793059,-0.209479,-0.219151,0.63971
336724808807,-0.209738,-0.21954,0.640593
336724832064,-0.209664,-0.219695,0.640606
336724853252,-0.210775,-0.220089,0.641082
336724868851,-0.210954,-0.220774,0.641587
336724891966,-0.210835,-0.220812,0.641574
336724913057,-0.211201,-0.220833,0.641363
336724928814,-0.211201,-0.220833,0.641363
336724951308,-0.211201,-0.220833,0.641363
336724973054,-0.211201,-0.220833,0.641363
336724988807,-0.210666,-0.22153,0.641389
336725011297,-0.210092,-0.222028,0.640737
336725033038,-0.209969,-0.222306,0.641012
336725048867,-0.209427,-0.223084,0.641688
336725071348,-0.209308,-0.223122,0.641674
336725093132,-0.209771,-0.222739,0.641301
336725108875,-0.209727,-0.222621,0.641274
336725131355,-0.209215,-0.222512,0.641583
336725154596,-0.209236,-0.222719,0.642121
336725168835,-0.208964,-0.223308,0.642422
336725191360,-0.208555,-0.223328,0.642244
336725214462,-0.208634,-0.222932,0.641942
336725228920,-0.208238,-0.223185,0.642193
336725251404,-0.208265,-0.223311,0.64208
336725274557,-0.208112,-0.223364,0.641788
336725288843,-0.20812,-0.223382,0.641818
336725311320,-0.20812,-0.223382,0.641818
336725334606,-0.20812,-0.223382,0.641818
336725348832,-0.207942,-0.223468,0.641276
336725371382,-0.207753,-0.223421,0.640987
336725394580,-0.207709,-0.223303,0.64096
336725408866,-0.207076,-0.222974,0.640937
336725431353,-0.206534,-0.221867,0.640715
336725454632,-0.206015,-0.221127,0.64067
336725468782,-0.205984,-0.220585,0.640826
336725491383,-0.205416,-0.219968,0.641044
336725514561,-0.204476,-0.218956,0.641439
336725528863,-0.203702,-0.218141,0.641592
336725551342,-0.203265,-0.217878,0.641891
336725574566,-0.202633,-0.21755,0.641871
336725588842,-0.201484,-0.21674,0.64213
336725611261,-0.200345,-0.215907,0.6425
336725634574,-0.199669,-0.215563,0.643136
336725655619,-0.19883,-0.215242,0.644414
336725671418,-0.197003,-0.214451,0.64532
336725694564,-0.195764,-0.213254,0.645898
336725715698,-0.195594,-0.212644,0.646189
336725731325,-0.195156,-0.212124,0.646175
336725754534,-0.194874,-0.21131,0.646167
336725775533,-0.194949,-0.210601,0.646594
336725791311,-0.194455,-0.209833,0.64681
336725814567,-0.193959,-0.208845,0.64663
336725835623,-0.193232,-0.208308,0.646459
336725851347,-0.193158,-0.208464,0.646471
336725873847,-0.19326,-0.20788,0.646785
336725895524,-0.192577,-0.206908,0.647079
336725911306,-0.19261,-0.206018,0.646724
336725933888,-0.193263,-0.205835,0.646272
336725955629,-0.193503,-0.205656,0.645618
336725971411,-0.194054,-0.205503,0.645293
336725993926,-0.194306,-0.205973,0.645018
336726015600,-0.195009,-0.207056,0.644579
336726031346,-0.195325,-0.208564,0.644061
336726053886,-0.195554,-0.209284,0.643934
336726077033,-0.196,-0.20978,0.644056
336726099581,-0.196581,-0.210231,0.644331
336726104928,-0.196881,-0.210382,0.644238
336726127463,-0.196881,-0.210382,0.644238
336726150624,-0.197323,-0.210503,0.644328
336726164955,-0.19711,-0.211102,0.644112
336726187447,-0.195968,-0.213261,0.64269
336726210550,-0.198956,-0.217668,0.64034
336726224963,-0.202729,-0.220834,0.639239
336726247432,-0.202998,-0.223004,0.638672
336726270670,-0.204366,-0.225338,0.638155
336726286374,-0.205986,-0.227332,0.637492
336726307525,-0.206351,-0.228943,0.637132
336726330646,-0.205801,-0.229407,0.636728
336726344985,-0.206447,-0.228857,0.636248
336726367414,-0.207541,-0.226958,0.635732
336726390603,-0.206995,-0.223732,0.634187
336726413149,-0.206468,-0.217695,0.629373
336726427396,-0.205696,-0.20819,0.623431
336726450668,-0.206912,-0.196007,0.621162
336726465027,-0.209691,-0.187819,0.623659
336726487431,-0.210186,-0.183832,0.627822
336726510583,-0.206101,-0.181022,0.630554
336726524952,-0.202474,-0.179824,0.630582
336726547440,-0.202809,-0.180582,0.631242
336726570599,-0.204538,-0.181837,0.633455
336726584982,-0.206852,-0.182708,0.636171
336726607429,-0.209891,-0.181297,0.638425
336726630630,-0.211061,-0.177674,0.640026
336726644987,-0.210966,-0.173256,0.642009
336726667492,-0.210411,-0.170164,0.643998
336726690626,-0.210011,-0.167924,0.645979
336726704937,-0.20974,-0.167384,0.647437
336726727440,-0.208778,-0.166436,0.648624
336726750657,-0.208674,-0.162493,0.649371
336726764989,-0.209137,-0.154652,0.650978
336726787392,-0.207419,-0.146837,0.651591
336726810608,-0.202745,-0.143837,0.646581
336726825068,-0.205706,-0.146866,0.640429
336726847490,-0.207492,-0.153708,0.636829
336726870609,-0.208978,-0.158409,0.637093
336726884993,-0.209803,-0.15964,0.639548
336726907466,-0.211743,-0.158609,0.64146
336726930576,-0.212492,-0.156282,0.641352
336726953122,-0.210987,-0.153747,0.640212
336726967519,-0.208956,-0.151651,0.638796
336726990778,-0.209129,-0.149076,0.637695
336727004963,-0.208226,-0.147343,0.637128
336727027446,-0.207119,-0.146968,0.63643
336727050047,-0.208058,-0.149029,0.636302
336727065033,-0.209745,-0.150384,0.636919
336727087421,-0.209999,-0.149264,0.636789
336727110001,-0.210089,-0.145583,0.637117
336727125030,-0.210235,-0.141935,0.63666
336727147540,-0.20798,-0.14257,0.63287
336727170042,-0.210256,-0.149529,0.627675
336727184953,-0.217804,-0.158563,0.624551
336727207537,-0.220263,-0.161336,0.6256
336727229962,-0.216846,-0.161591,0.627691
336727245062,-0.220847,-0.161563,0.629964
336727267503,-0.225672,-0.162154,0.63086
336727289971,-0.224225,-0.164064,0.630704
336727304922,-0.222993,-0.166478,0.629858
336727327597,-0.22352,-0.167711,0.628669
336727349970,-0.225665,-0.167559,0.628655
336727365058,-0.226716,-0.166764,0.631
336727387603,-0.227119,-0.164546,0.634101
336727410089,-0.225447,-0.161323,0.6368
336727425085,-0.221093,-0.158233,0.636136
336727447466,-0.220237,-0.159591,0.632606
336727470036,-0.224307,-0.164468,0.630256
336727485049,-0.227505,-0.167602,0.631996
336727507658,-0.225608,-0.168086,0.636352
336727530120,-0.226934,-0.168838,0.640901
336727545219,-0.227608,-0.169354,0.642857
336727567516,-0.225736,-0.168777,0.642928
336727589974,-0.224881,-0.168143,0.643004
336727604998,-0.225089,-0.167018,0.644683
336727627498,-0.225876,-0.16492,0.64643
336727650019,-0.226315,-0.161061,0.647099
336727664994,-0.224892,-0.159019,0.647567
336727687515,-0.222729,-0.160189,0.646692
336727709971,-0.224061,-0.162022,0.646065
336727725059,-0.223754,-0.164116,0.647239
336727747492,-0.222748,-0.166246,0.648955
336727770033,-0.224149,-0.167424,0.649682
336727786392,-0.224276,-0.168568,0.649607
336727807610,-0.223521,-0.168704,0.649405
336727830159,-0.223182,-0.168411,0.649586
336727846469,-0.224152,-0.16865,0.65049
336727867482,-0.224142,-0.168717,0.651277
336727890039,-0.22345,-0.166973,0.651616
336727906437,-0.222769,-0.164784,0.65225
336727927544,-0.222656,-0.163689,0.653393
336727950067,-0.222582,-0.163844,0.653406
336727966368,-0.222876,-0.164417,0.653124
336727987606,-0.22264,-0.164494,0.653102
336728009978,-0.22192,-0.163396,0.653517
336728026449,-0.222379,-0.163083,0.653923
336728047557,-0.222392,-0.16347,0.653986
336728070020,-0.221981,-0.164104,0.654138
336728086519,-0.221716,-0.164283,0.654655
336728107550,-0.221512,-0.164545,0.655445
336728131433,-0.221649,-0.164701,0.656129
336728146433,-0.221649,-0.164701,0.656129
336728167520,-0.221488,-0.163829,0.656245
336728190041,-0.221102,-0.163047,0.656371
336728206517,-0.220945,-0.161923,0.656172
336728227503,-0.220488,-0.160816,0.655571
336728250028,-0.219911,-0.16,0.655277
336728266521,-0.219821,-0.159393,0.655197
336728287530,-0.22043,-0.159314,0.655105
336728310005,-0.22043,-0.159314,0.655105
336728326582,-0.220194,-0.159619,0.655508
336728347565,-0.220194,-0.159619,0.655508
336728370107,-0.220194,-0.159619,0.655508
336728392586,-0.220312,-0.15958,0.655519
336728407530,-0.219973,-0.15906,0.655278
336728430070,-0.219697,-0.157998,0.654963
336728446601,-0.219916,-0.157389,0.655315
336728467602,-0.219725,-0.157185,0.655395
336728490062,-0.219475,-0.156272,0.654857
336728506553,-0.218463,-0.155712,0.654517
336728527615,-0.217918,-0.155623,0.654566
336728550104,-0.217339,-0.15566,0.655045
336728566486,-0.215591,-0.15464,0.655339
336728587503,-0.213654,-0.152187,0.654921
336728609955,-0.211025,-0.149978,0.654481
336728626497,-0.208609,-0.147522,0.654403
336728647483,-0.205409,-0.144748,0.655268
336728669994,-0.203784,-0.141946,0.65643
336728686501,-0.202417,-0.140988,0.6577
336728707615,-0.199357,-0.142349,0.658609
336728730034,-0.19743,-0.146123,0.658613
336728746612,-0.197251,-0.150491,0.658486
336728769017,-0.19999,-0.154099,0.65898
336728790113,-0.202886,-0.157772,0.659494
336728806553,-0.204647,-0.161993,0.659725
336728829003,-0.206561,-0.164484,0.659757
336728850113,-0.207531,-0.165721,0.659915
336728866462,-0.208496,-0.166778,0.660549
336728889050,-0.209425,-0.167105,0.660843
336728909988,-0.209584,-0.166951,0.660453
336728926540,-0.209715,-0.166188,0.659438
336728948998,-0.210431,-0.165485,0.658794
336728970088,-0.211035,-0.164402,0.658325
336728986531,-0.211079,-0.163494,0.658082
336729009060,-0.211079,-0.163494,0.658082
336729030104,-0.211004,-0.163649,0.658095
336729046626,-0.210461,-0.163165,0.658221
336729068981,-0.210343,-0.163204,0.658211
336729090098,-0.210153,-0.163628,0.658637
336729106512,-0.20943,-0.164123,0.658748
336729128951,-0.2089,-0.164027,0.658936
336729145415,-0.208226,-0.164219,0.659259
336729166514,-0.208343,-0.16418,0.65927
336729188987,-0.20787,-0.164192,0.659621
336729205508,-0.206751,-0.163662,0.65941
336729226508,-0.206116,-0.162737,0.658958
336729248158,-0.206233,-0.162698,0.658969
336729270689,-0.206233,-0.162698,0.658969
336729285685,-0.205425,-0.161771,0.659272
336729308201,-0.204723,-0.160021,0.659608
336729330686,-0.204915,-0.158637,0.659847
336729345689,-0.204915,-0.158637,0.659847
336729368163,-0.204946,-0.158762,0.65973
336729390687,-0.204594,-0.158714,0.660203
336729405655,-0.204563,-0.158821,0.660743
336729428197,-0.204607,-0.158937,0.660766
336729450693,-0.204298,-0.158774,0.660838
336729465697,-0.203329,-0.158563,0.660951
336729488184,-0.20265,-0.158382,0.661247
336729510713,-0.202607,-0.158266,0.661224
336729525666,-0.202428,-0.159012,0.660781
336729548250,-0.201645,-0.159189,0.660198
336729578870,-0.201015,-0.159663,0.660042
336729585677,-0.201188,-0.160525,0.660053
336729608206,-0.201439,-0.161606,0.660081
336729630688,-0.201557,-0.161567,0.660092
336729645718,-0.20107,-0.16096,0.659962
336729668221,-0.200983,-0.160728,0.659916
336729690693,-0.20104,-0.159974,0.659313
336729705713,-0.201379,-0.159634,0.658782
336729728158,-0.201819,-0.159121,0.658517
336729743968,-0.20195,-0.158842,0.658244
336729765683,-0.201521,-0.158274,0.657351
336729788189,-0.201482,-0.157064,0.656141
336729804022,-0.2014,-0.15597,0.655332
336729825649,-0.201281,-0.155402,0.654872
336729848207,-0.201281,-0.155402,0.654872
336729864015,-0.20065,-0.154871,0.654348
336729887168,-0.199756,-0.153896,0.654004
336729908210,-0.19983,-0.153741,0.653991
336729923993,-0.19983,-0.153741,0.653991
336729947147,-0.199293,-0.153189,0.653201
336729968160,-0.198785,-0.15199,0.652351
336729984025,-0.199157,-0.151401,0.651679
336730007179,-0.199423,-0.151613,0.651079
336730028208,-0.199196,-0.151389,0.649714
336730044027,-0.199608,-0.151102,0.648452
336730067178,-0.200172,-0.151093,0.647723
336730088212,-0.200811,-0.15093,0.646981
336730104018,-0.201041,-0.14986,0.646498
336730127180,-0.200794,-0.148158,0.646
336730148322,-0.200895,-0.147135,0.645369
336730164048,-0.200195,-0.147131,0.64489
336730187189,-0.199908,-0.146329,0.644766
336730208195,-0.198944,-0.142587,0.645249
336730223958,-0.196664,-0.138723,0.645946
336730247181,-0.194687,-0.136621,0.646269
336730268305,-0.193169,-0.137128,0.646178
336730284058,-0.192752,-0.139144,0.645486
336730307154,-0.193699,-0.14016,0.645052
336730328291,-0.194504,-0.141131,0.645895
336730344038,-0.195274,-0.142209,0.647276
336730367121,-0.195507,-0.14336,0.648213
336730388311,-0.195995,-0.143341,0.647996
336730404101,-0.197401,-0.142823,0.647051
336730427205,-0.199646,-0.14257,0.645835
336730448228,-0.200545,-0.142709,0.645306
336730464042,-0.200704,-0.143163,0.645363
336730487182,-0.200879,-0.143396,0.645031
336730508328,-0.200744,-0.142846,0.644299
336730524112,-0.200958,-0.142577,0.643514
336730547235,-0.201325,-0.142994,0.643205
336730568283,-0.201699,-0.143258,0.643429
336730584057,-0.201588,-0.142879,0.64361
336730607209,-0.201308,-0.142299,0.644045
336730628250,-0.201724,-0.14204,0.643924
336730644083,-0.201966,-0.142108,0.643549
336730666594,-0.202455,-0.141716,0.643308
336730688318,-0.203339,-0.141702,0.643143
336730704125,-0.204318,-0.142286,0.643186
336730726565,-0.205276,-0.142493,0.643036
336730748357,-0.206916,-0.143131,0.643036
336730764091,-0.208647,-0.143771,0.642663
336730786563,-0.20959,-0.145023,0.642666
336730809707,-0.209622,-0.145766,0.643027
336730824068,-0.209066,-0.145969,0.644422
336730846599,-0.207623,-0.146583,0.645899
336730869755,-0.206645,-0.1472,0.646884
336730884081,-0.205732,-0.148666,0.646976
336730906530,-0.205536,-0.149607,0.645785
336730929737,-0.20585,-0.148485,0.643864
336730944114,-0.206586,-0.147723,0.642301
336730966567,-0.208117,-0.147961,0.64135
336730989776,-0.208226,-0.14791,0.64133
336731004087,-0.208183,-0.147794,0.641307
336731026594,-0.208705,-0.148147,0.641428
336731049737,-0.207348,-0.149512,0.641335
336731064100,-0.20656,-0.153708,0.638914
336731086508,-0.218472,-0.156637,0.637151
336731109752,-0.22903,-0.156854,0.636081
336731130838,-0.229624,-0.150015,0.631964
336731146591,-0.227904,-0.139164,0.623184
336731169764,-0.228865,-0.127417,0.606973
336731190874,-0.227794,-0.116455,0.586144
336731206623,-0.222037,-0.110192,0.561625
336731229736,-0.21765,-0.109425,0.536812
336731250782,-0.216112,-0.11013,0.513235
336731266611,-0.213498,-0.110594,0.490896
336731289750,-0.210836,-0.11159,0.470703
336731310765,-0.210411,-0.11502,0.453794
336731326581,-0.207082,-0.120839,0.439738
336731349734,-0.201757,-0.127656,0.428388
336731370828,-0.199935,-0.130983,0.420571
336731386609,-0.200431,-0.132131,0.419101
336731409723,-0.196841,-0.133367,0.420826
336731430840,-0.194045,-0.134969,0.422139
336731446596,-0.193227,-0.137044,0.421919
336731469754,-0.192602,-0.138161,0.420603
336731490814,-0.192732,-0.139228,0.419472
336731506588,-0.193458,-0.140827,0.418081
336731529789,-0.193039,-0.142254,0.415571
336731558345,-0.19402,-0.142945,0.412346
336731566643,-0.195282,-0.14339,0.410008
336731589084,-0.196665,-0.142699,0.408927
336731612214,-0.197576,-0.142288,0.410228
336731626620,-0.198005,-0.141489,0.412683
336731649123,-0.198587,-0.140614,0.415645
336731672284,-0.201399,-0.139834,0.419449
336731686597,-0.200022,-0.139928,0.426117
336731709114,-0.197098,-0.141867,0.43738
336731730810,-0.192564,-0.145878,0.451511
336731746599,-0.186444,-0.149866,0.467017
336731769119,-0.180945,-0.154915,0.483065
336731792296,-0.174144,-0.160067,0.496588
336731806575,-0.168647,-0.163332,0.508669
336731829167,-0.163575,-0.16297,0.516986
336731852317,-0.161348,-0.15859,0.523018
336731866630,-0.160791,-0.155356,0.526318
336731889108,-0.160864,-0.153767,0.525038
336731912253,-0.158731,-0.152827,0.520155
336731926621,-0.155396,-0.150973,0.51445
336731949171,-0.153324,-0.147489,0.509096
336731972303,-0.153146,-0.143406,0.503765
336731986629,-0.151967,-0.138615,0.497518
336732009160,-0.149786,-0.132408,0.489288
336732032260,-0.144173,-0.125356,0.479488
336732053259,-0.142797,-0.120098,0.468832
336732069088,-0.149293,-0.116923,0.456738
336732092294,-0.156099,-0.115015,0.44462
336732113386,-0.159079,-0.11393,0.432334
336732129137,-0.16304,-0.114902,0.42042
336732152330,-0.171337,-0.118232,0.411346
336732173360,-0.179077,-0.122162,0.40834
336732189111,-0.175505,-0.125885,0.408566
336732212250,-0.168961,-0.126674,0.410744
336732240876,-0.169847,-0.128545,0.413628
336732249118,-0.17045,-0.130361,0.416224
336732272329,-0.168325,-0.132068,0.417846
336732293362,-0.165424,-0.133827,0.417534
336732309105,-0.165419,-0.133956,0.415666
336732332313,-0.167483,-0.132846,0.414733
336732353972,-0.172219,-0.130025,0.414219
336732368380,-0.171894,-0.126368,0.413716
336732382751,-0.173499,-0.123081,0.41288
336732405206,-0.175529,-0.123003,0.413411
336732428353,-0.175143,-0.12522,0.415113
336732442688,-0.17661,-0.128432,0.418432
336732465168,-0.176832,-0.132328,0.422861
336732488352,-0.174231,-0.133698,0.427045
336732502702,-0.17214,-0.133114,0.429065
336732525161,-0.172246,-0.131173,0.429508
336732556512,-0.174295,-0.129896,0.428918
336732562703,-0.174563,-0.130092,0.425585
336732585199,-0.174954,-0.130887,0.422183
336732608300,-0.176045,-0.131251,0.419302
336732622732,-0.17824,-0.132321,0.417331
336732645310,-0.179589,-0.132821,0.417135
336732668437,-0.176749,-0.132873,0.417524
336732682741,-0.17572,-0.13416,0.418324
336732705261,-0.176032,-0.137055,0.419013
336732728409,-0.177325,-0.140896,0.421281
336732742766,-0.17888,-0.14505,0.425509
336732765213,-0.17902,-0.148023,0.430715
336732788336,-0.17866,-0.150718,0.436382
336732802718,-0.178313,-0.151728,0.440855
336732825208,-0.178185,-0.15089,0.444155
336732856518,-0.178694,-0.146342,0.446106
336732862692,-0.180251,-0.140628,0.448795
336732885131,-0.180325,-0.136876,0.449642
336732908356,-0.182478,-0.136695,0.447431
336732922650,-0.186549,-0.138603,0.447136
336732945169,-0.187802,-0.140785,0.451133
336732968355,-0.193062,-0.142726,0.458019
336732982744,-0.194978,-0.144077,0.465527
336733005222,-0.194352,-0.144749,0.473113
336733028404,-0.196244,-0.145216,0.482333
336733042760,-0.198612,-0.145769,0.493509
336733065273,-0.202577,-0.14675,0.506683
336733088436,-0.20606,-0.148941,0.520257
336733102756,-0.209158,-0.150922,0.532656
336733125299,-0.209692,-0.150969,0.542529
336733148449,-0.210178,-0.149232,0.550762
336733162793,-0.210603,-0.147433,0.558639
336733185235,-0.210691,-0.146921,0.565863
336733208444,-0.210707,-0.147426,0.571934
336733222700,-0.21112,-0.149015,0.576155
336733245218,-0.211448,-0.151103,0.579275
336733268358,-0.210615,-0.15327,0.580869
336733282740,-0.210386,-0.153351,0.580876
336733305196,-0.209522,-0.153605,0.579275
336733328461,-0.210495,-0.154284,0.576893
336733342749,-0.211489,-0.15548,0.574455
336733365260,-0.21205,-0.157162,0.572576
336733388434,-0.213159,-0.158741,0.571356
336733402697,-0.213184,-0.160167,0.571164
336733425317,-0.212428,-0.161767,0.571543
336733440213,-0.212406,-0.163497,0.572395
336733462753,-0.212189,-0.164878,0.573577
336733485262,-0.210594,-0.166044,0.574453
336733501628,-0.20997,-0.167773,0.574487
336733522793,-0.209888,-0.169152,0.573487
336733545242,-0.208532,-0.169538,0.571836
336733561663,-0.207069,-0.169362,0.569597
336733582780,-0.205591,-0.16648,0.564198
336733605221,-0.19908,-0.159268,0.553394
336733628410,-0.185615,-0.146644,0.537013
336733642791,-0.162481,-0.126273,0.516214
336733665208,-0.127957,-0.0997139,0.486795
336733687799,-0.0992892,-0.0692038,0.44944
336733702714,-0.0783824,-0.0314039,0.405325
336733725287,-0.0541664,0.0161376,0.353845
336733747777,-0.0288336,0.0699098,0.29261
336733762820,-0.0222089,0.123947,0.22427
336733785278,-0.0356316,0.177676,0.153009
336733807761,-0.0551466,0.238107,0.0790264
336733822695,-0.0774202,0.303736,0.00260421
336733845314,-0.112057,0.371656,-0.0722201
336733867831,-0.163148,0.437122,-0.141355
336733882780,-0.218083,0.499959,-0.200821
336733905262,-0.262579,0.561799,-0.248874
336733927904,-0.290978,0.62084,-0.283699
336733942727,-0.303048,0.671533,-0.301514
336733965264,-0.291492,0.708287,-0.291397
336733987813,-0.247846,0.73122,-0.247279
336734002758,-0.180614,0.737878,-0.176556
336734025269,-0.100073,0.728534,-0.0874949
336734047795,-0.0152401,0.70031,0.00950789
336734062755,0.0655703,0.655076,0.105503
336734085318,0.1341,0.596337,0.191638
336734107827,0.183224,0.532628,0.259186
336734122750,0.214139,0.469225,0.305436
336734145291,0.230719,0.409007,0.333706
336734167853,0.23681,0.351469,0.345719
336734182928,0.23475,0.304972,0.341415
336734205210,0.222201,0.270755,0.320686
336734227758,0.190225,0.252318,0.285478
336734242804,0.149228,0.245357,0.235421
336734265275,0.0997877,0.24844,0.169791
336734287779,0.0382224,0.255126,0.0904732
336734302737,-0.0346222,0.255038,0.00257603
336734325364,-0.114186,0.244704,-0.0872443
336734347826,-0.194603,0.227076,-0.169899
336734362858,-0.257238,0.202939,-0.226836
336734385254,-0.305123,0.172438,-0.251775
336734407796,-0.339128,0.137777,-0.253144
336734424207,-0.350608,0.0938176,-0.242352
336734445323,-0.345498,0.0343069,-0.221915
336734467814,-0.336808,-0.0349017,-0.179216
336734484239,-0.310826,-0.107737,-0.122414
336734505248,-0.254843,-0.171154,-0.0611625
336734527778,-0.211985,-0.217203,-0.00100375
336734544271,-0.188121,-0.244282,0.0432949
336734565314,-0.169955,-0.241499,0.0599166
336734587832,-0.15789,-0.207446,0.0424466
336734604207,-0.167355,-0.146728,-0.00548051
336734625344,-0.198998,-0.0674955,-0.0746612
336734647795,-0.254323,0.0220448,-0.152612
336734664207,-0.330469,0.111428,-0.229446
336734685282,-0.414476,0.196376,-0.298394
336734707853,-0.485767,0.27273,-0.35132
336734724266,-0.521897,0.335557,-0.37439
336734745316,-0.510514,0.381302,-0.364077
336734767827,-0.453692,0.412608,-0.32511
336734784263,-0.365846,0.430975,-0.262256
336734805315,-0.263184,0.436042,-0.180358
336734835964,-0.162422,0.424437,-0.0855568
336734850303,-0.0695138,0.394065,0.0160083
336734865341,0.00857523,0.34331,0.115897
336734887841,0.0659242,0.284051,0.20207
336734905742,0.10558,0.235772,0.261796
336734925333,0.130373,0.209333,0.288362
336734947823,0.135429,0.209206,0.289304
336734964258,0.183907,0.244138,0.284073
336734985338,0.205001,0.289628,0.268637
336735007854,0.132983,0.341818,0.22904
336735024279,0.0433103,0.400797,0.156317
336735045360,-0.0468086,0.453175,0.0562512
336735067809,-0.148693,0.48746,-0.0586082
336735084238,-0.257205,0.500533,-0.170384
336735105260,-0.361283,0.494051,-0.264331
336735127802,-0.446336,0.476137,-0.325883
336735144273,-0.49432,0.444944,-0.343536
336735165331,-0.500497,0.403837,-0.327461
336735187819,-0.480006,0.344788,-0.288289
336735204260,-0.434532,0.275661,-0.223751
336735225331,-0.364541,0.199311,-0.138672
336735241782,-0.28564,0.121958,-0.0428875
336735271729,-0.218727,0.0459469,0.0525717
336735285332,-0.170891,-0.0223903,0.13262
336735301708,-0.134174,-0.0645009,0.176769
336735324294,-0.07854,-0.0697454,0.192611
336735345330,0.0344215,-0.0624391,0.197981
336735361778,0.0661273,-0.0551644,0.190778
336735384266,0.00580398,-0.0324094,0.155354
336735406714,-0.0631877,0.00809646,0.0897855
336735429225,-0.122017,0.0511662,0.00666094
336735444236,-0.184409,0.0854626,-0.0777367
336735468227,-0.260803,0.11503,-0.144548
336735488511,-0.334594,0.141593,-0.182467
336735504854,-0.386102,0.149025,-0.193991
336735526623,-0.413731,0.134176,-0.183479
336735549926,-0.430344,0.0953391,-0.175488
336735563536,-0.402137,0.034734,-0.152363
336735585768,-0.360159,-0.0375291,-0.106401
336735608525,-0.313632,-0.110888,-0.0512796
336735623507,-0.265478,-0.173375,0.0018222
336735646027,-0.242173,-0.222964,0.0488959
336735668529,-0.224646,-0.26689,0.0854394
336735683540,-0.203372,-0.295641,0.108056
336735706020,-0.19509,-0.311888,0.113596
336735728561,-0.201745,-0.319993,0.103759
336735743539,-0.218535,-0.322658,0.0841002
336735765999,-0.254675,-0.325762,0.0631505
336735788514,-0.296771,-0.322803,0.0431673
336735803491,-0.333863,-0.309879,0.022943
336735833510,-0.363011,-0.290148,0.00295549
336735848512,-0.379817,-0.272101,-0.0144923
336735863546,-0.421453,-0.262509,-0.0186993
336735887557,-0.444389,-0.254962,-0.0155118
336735908513,-0.420228,-0.226573,-0.00963653
336735923533,-0.380746,-0.182468,-0.00630894
336735946022,-0.367349,-0.127682,0.000862302
336735968511,-0.374426,-0.0670427,0.0134504
336735983460,-0.37049,-0.0043073,0.0273855
336736005971,-0.352598,0.0588512,0.0386376
336736028510,-0.329137,0.118051,0.0486787
336736043326,-0.302157,0.172464,0.0621867
336736065984,-0.27249,0.220006,0.0783485
336736088460,-0.242656,0.259646,0.0938527
336736103544,-0.212242,0.291022,0.106089
336736133601,-0.181398,0.316379,0.108728
336736149957,-0.162225,0.349787,0.0843651
336736163617,-0.157535,0.391892,0.0343295
336736186049,-0.164837,0.425718,-0.0285636
336736201760,-0.19268,0.445895,-0.0895789
336736225036,-0.249607,0.456297,-0.14715
336736246032,-0.317875,0.463167,-0.202321
336736261849,-0.376491,0.467179,-0.250522
336736283596,-0.417831,0.465214,-0.286598
336736306108,-0.436516,0.457278,-0.304761
336736321783,-0.443788,0.436018,-0.309303
336736343534,-0.432446,0.397481,-0.295119
336736366009,-0.397627,0.352467,-0.261232
336736381790,-0.349462,0.305621,-0.208722
336736403538,-0.288745,0.257588,-0.146523
336736426071,-0.238438,0.209416,-0.0816734
336736441782,-0.20444,0.162996,-0.0230368
336736464946,-0.168632,0.121966,0.0217118
336736486064,-0.13482,0.090066,0.0484211
336736501811,-0.100158,0.070349,0.054326
336736539181,-0.073933,0.062611,0.0506081
336736546049,-0.0839694,0.0582413,0.036545
336736561771,-0.117251,0.0602715,0.0100407
336736584966,-0.156561,0.0633735,-0.0289841
336736606061,-0.19544,0.0656656,-0.0765272
336736621836,-0.236348,0.0637695,-0.126817
336736644938,-0.274281,0.0571552,-0.171659
336736666028,-0.302479,0.0433395,-0.205282
336736681856,-0.321971,0.0225497,-0.224998
336736705032,-0.334909,-0.00825769,-0.23288
336736726077,-0.338288,-0.0484278,-0.230746
336736741827,-0.330701,-0.0900491,-0.217268
336736764985,-0.319163,-0.136594,-0.191153
336736786072,-0.308704,-0.186473,-0.15315
336736801853,-0.298549,-0.235884,-0.1089
336736831039,-0.288704,-0.281511,-0.0629919
336736846075,-0.281818,-0.325131,-0.0170662
336736861824,-0.280542,-0.367045,0.0270904
336736884998,-0.290534,-0.401046,0.063233
336736906075,-0.307118,-0.4255,0.0895797
336736921829,-0.318765,-0.439073,0.103104
336736945025,-0.308565,-0.440248,0.0969002
336736967502,-0.302726,-0.435981,0.0777881
336736981898,-0.333589,-0.436616,0.0590751
336737005005,-0.373386,-0.430963,0.0475718
336737026131,-0.384005,-0.419343,0.0373352
336737041834,-0.363695,-0.400956,0.0221739
336737064992,-0.332759,-0.37172,0.00383502
336737087578,-0.30639,-0.334604,-0.0139925
336737108609,-0.280234,-0.288862,-0.0316041
336737124987,-0.256889,-0.236413,-0.0496522
336737146080,-0.242143,-0.17802,-0.0709044
336737161804,-0.235094,-0.11002,-0.0975901
336737184955,-0.231803,-0.0337693,-0.125951
336737206127,-0.234389,0.0476437,-0.153152
336737221867,-0.246234,0.132736,-0.179461
336737244327,-0.264367,0.219144,-0.202516
336737266096,-0.282084,0.30262,-0.217576
336737281898,-0.290469,0.38134,-0.220533
336737304338,-0.288431,0.452738,-0.211343
336737326076,-0.275757,0.516667,-0.192347
336737341848,-0.244693,0.572322,-0.160119
336737364340,-0.191772,0.617497,-0.112293
336737386092,-0.124306,0.650023,-0.0517432
336737401864,-0.0468146,0.669006,0.0188846
336737424329,0.0380432,0.673783,0.0978212
336737447598,0.127511,0.662021,0.181692
336737461860,0.215651,0.634273,0.265175
336737484356,0.299873,0.5915,0.345355
336737515044,0.377296,0.536731,0.418702
336737521855,0.44692,0.468277,0.48289
336737552562,0.505576,0.390265,0.539965
336737567582,0.554117,0.306111,0.593497
336737588617,0.593287,0.215647,0.644142
336737604372,0.623588,0.120862,0.693019
336737627563,0.641527,0.0202094,0.740183
336737648613,0.653628,-0.0815891,0.791806
336737664326,0.663928,-0.175429,0.844747
336737687596,0.662381,-0.252827,0.895645
336737708639,0.644483,-0.3216,0.947946
336737724396,0.624128,-0.382272,1.00475
336737747555,0.610697,-0.436707,1.06289
336737776091,0.589145,-0.485673,1.1177
336737784407,0.557613,-0.51771,1.16264
336737807530,0.539762,-0.535739,1.19101
336737828553,0.538959,-0.541517,1.20126
336737844381,0.545188,-0.539247,1.19317
336737867558,0.554775,-0.530457,1.16855
336737888659,0.569106,-0.514808,1.13109
336737904399,0.583246,-0.496414,1.08423
336737927549,0.601676,-0.473348,1.03008
336737948552,0.621586,-0.441913,0.96929
336737964412,0.636499,-0.398247,0.90298
336737987610,0.645325,-0.345369,0.833669
336738010075,0.649349,-0.290132,0.765714
336738024329,0.647581,-0.235131,0.699296
336738047556,0.63559,-0.179125,0.634782
336738068624,0.614768,-0.121777,0.569051
336738084388,0.585196,-0.0654171,0.501458
336738107602,0.548151,-0.0139982,0.432162
336738128531,0.503543,0.0299816,0.36162
336738144347,0.450641,0.0668265,0.290213
336738167508,0.392617,0.0943697,0.219461
336738188588,0.330968,0.110187,0.151258
336738204333,0.267873,0.11532,0.0842863
336738226827,0.204517,0.109916,0.0200168
336738248559,0.143406,0.0946894,-0.0380383
336738264332,0.0924696,0.0701375,-0.0905708
336738286830,0.0585192,0.0379373,-0.141427
336738308585,0.0344165,-0.00326631,-0.194481
336738324331,0.00967096,-0.0537893,-0.248426
336738346864,-0.0157034,-0.110093,-0.300665
336738368611,-0.0372705,-0.165394,-0.348108
336738384333,-0.047282,-0.219806,-0.392577
336738406803,-0.0504946,-0.273349,-0.434294
336738430020,-0.0512832,-0.323496,-0.471311
336738444356,-0.0542579,-0.366312,-0.505432
336738466857,-0.0619799,-0.403632,-0.534108
336738498953,-0.0718476,-0.434889,-0.55604
336738504537,-0.0847034,-0.461171,-0.571727
336738526832,-0.099104,-0.481464,-0.581211
336738550025,-0.11131,-0.495815,-0.583707
336738571153,-0.119826,-0.50345,-0.579803
336738586185,-0.123826,-0.504871,-0.571465
336738600403,-0.126506,-0.502159,-0.559034
336738622997,-0.131036,-0.495217,-0.542224
336738646148,-0.137566,-0.483375,-0.521517
336738660431,-0.146698,-0.466951,-0.496996
336738682925,-0.155142,-0.446528,-0.469147
336738706123,-0.162344,-0.421076,-0.438979
336738720462,-0.168945,-0.391359,-0.406667
336738742919,-0.173099,-0.356301,-0.372956
336738766063,-0.176237,-0.317303,-0.336084
336738780412,-0.175725,-0.275532,-0.296983
336738802934,-0.170642,-0.23138,-0.255905
336738826104,-0.160662,-0.186583,-0.212471
336738840437,-0.14448,-0.14325,-0.167025
336738862915,-0.122024,-0.102875,-0.119061
336738886189,-0.0949154,-0.0664839,-0.0685098
336738901824,-0.0650652,-0.0354201,-0.0149714
336738922942,-0.032079,-0.0104647,0.0403365
336738946144,0.00442275,0.00822238,0.0947787
336738960420,0.0386192,0.020511,0.148514
336738982971,0.0688199,0.0262741,0.202546
336739014219,0.0949046,0.0255796,0.256471
336739020453,0.118194,0.0199013,0.309581
336739042933,0.140372,0.0112268,0.36004
336739066084,0.161049,-0.000193924,0.407294
336739080445,0.181274,-0.0140057,0.450692
336739103575,0.198434,-0.0302597,0.492023
336739126152,0.210403,-0.0483097,0.530338
336739140429,0.218973,-0.0676912,0.564414
336739165058,0.226917,-0.0881716,0.593652
