timestamp,x,y,z,w
336682070842,-0.145081,-0.0656128,0.159546,0.974243
336682094418,-0.144836,-0.0656128,0.159363,0.974304
336682123337,-0.145142,-0.0661011,0.159302,0.974243
336682131948,-0.145142,-0.0663452,0.159119,0.974243
336682153266,-0.145264,-0.0666504,0.158752,0.974243
336682183892,-0.145325,-0.0665283,0.158508,0.974304
336682231004,-0.145386,-0.0665283,0.158508,0.974304
336682231781,-0.145447,-0.0664673,0.158508,0.974304
336682238306,-0.145508,-0.0662842,0.158386,0.974304
336682252691,-0.145569,-0.0662842,0.158386,0.974304
336682274015,-0.145569,-0.0662231,0.158386,0.974304
336682288301,-0.145569,-0.0662842,0.158386,0.974304
336682341365,-0.145569,-0.0662842,0.158386,0.974304
336682342114,-0.145691,-0.0662842,0.158142,0.974304
336682355627,-0.145752,-0.0662842,0.158142,0.974304
336682372089,-0.145752,-0.0662842,0.158142,0.974304
336682394549,-0.145752,-0.0662842,0.158142,0.974304
336682409579,-0.145752,-0.0662842,0.158142,0.974304
336682432092,-0.145813,-0.0662842,0.158142,0.974304
336682461303,-0.145813,-0.0662842,0.158142,0.974304
336682475648,-0.145874,-0.0662231,0.158203,0.974304
336682492153,-0.145874,-0.0662231,0.158203,0.974304
336682514572,-0.145935,-0.0662842,0.158203,0.974304
336682535665,-0.145935,-0.0662842,0.158203,0.974304
336682552106,-0.145935,-0.0662842,0.158203,0.974304
336682574618,-0.145935,-0.0662842,0.158203,0.974304
336682588173,-0.145996,-0.0662842,0.158203,0.974304
336682611281,-0.145996,-0.0662231,0.158203,0.974304
336682633833,-0.145996,-0.0662842,0.158203,0.974304
336682648142,-0.146057,-0.0662231,0.158203,0.974304
336682679498,-0.146057,-0.0662231,0.158203,0.974243
336682693858,-0.146057,-0.0662842,0.158203,0.974243
336682708200,-0.146057,-0.0662842,0.158203,0.974243
336682731332,-0.146057,-0.0662842,0.158203,0.974243
336682753782,-0.146118,-0.0662842,0.158203,0.974243
336682768132,-0.146118,-0.0662842,0.158203,0.974243
336682791313,-0.146118,-0.0662842,0.158203,0.974243
336682813767,-0.146179,-0.0662842,0.158203,0.974243
336682828209,-0.146179,-0.0662842,0.158203,0.974243
336682851332,-0.14624,-0.0662842,0.158203,0.974243
336682873825,-0.14624,-0.0662842,0.158203,0.974243
336682888180,-0.14624,-0.0662842,0.158203,0.974243
336682911363,-0.14624,-0.0662842,0.158203,0.974243
336682933849,-0.14624,-0.0662842,0.158203,0.974243
336682948190,-0.146301,-0.0662842,0.158203,0.974243
336682971377,-0.146301,-0.0662842,0.158203,0.974243
336682993855,-0.146301,-0.0662842,0.158203,0.974243
336683008131,-0.146301,-0.0662842,0.158203,0.974243
336683031305,-0.146362,-0.0662842,0.158203,0.974243
336683053798,-0.146362,-0.0662842,0.158203,0.974243
336683068151,-0.146362,-0.0662842,0.158203,0.974243
336683091400,-0.146423,-0.0662842,0.158203,0.974182
336683113828,-0.146667,-0.0663452,0.157959,0.974182
336683128104,-0.147156,-0.0663452,0.157715,0.974182
336683151049,-0.147522,-0.0664673,0.157471,0.974182
336683173824,-0.148132,-0.0664673,0.157227,0.974121
336683188161,-0.148438,-0.0663452,0.157104,0.97406
336683211366,-0.148865,-0.0662842,0.15686,0.97406
336683233627,-0.149048,-0.0661011,0.156677,0.97406
336683248138,-0.149048,-0.06604,0.156677,0.97406
336683271257,-0.149048,-0.06604,0.156677,0.97406
336683293825,-0.149048,-0.065979,0.156677,0.97406
336683308069,-0.149048,-0.06604,0.156677,0.97406
336683330601,-0.149048,-0.06604,0.156677,0.97406
336683353572,-0.149048,-0.06604,0.156677,0.97406
336683368160,-0.149109,-0.06604,0.156677,0.97406
336683390646,-0.149109,-0.06604,0.156677,0.97406
336683413157,-0.14917,-0.06604,0.156677,0.97406
336683428133,-0.14917,-0.06604,0.156677,0.97406
336683450641,-0.14917,-0.06604,0.156677,0.97406
336683473183,-0.149231,-0.06604,0.156677,0.97406
336683488238,-0.149231,-0.06604,0.156677,0.97406
336683510716,-0.149231,-0.06604,0.156677,0.97406
336683533210,-0.149231,-0.0661011,0.156677,0.97406
336683548188,-0.149292,-0.0661011,0.156677,0.97406
336683570684,-0.149292,-0.06604,0.156677,0.97406
336683593208,-0.149292,-0.06604,0.156677,0.97406
336683608234,-0.149292,-0.06604,0.156677,0.97406
336683630637,-0.149353,-0.06604,0.156677,0.97406
336683653174,-0.149353,-0.06604,0.156677,0.97406
336683668199,-0.149353,-0.06604,0.156677,0.973999
336683690686,-0.149414,-0.06604,0.156677,0.973999
336683713220,-0.149414,-0.06604,0.156677,0.973999
336683729627,-0.149414,-0.06604,0.156677,0.973999
336683752173,-0.149414,-0.06604,0.156677,0.973999
336683773231,-0.149414,-0.06604,0.156677,0.973999
336683788210,-0.149475,-0.06604,0.156677,0.973999
336683810661,-0.149475,-0.06604,0.156677,0.973999
336683833203,-0.149475,-0.06604,0.156677,0.973999
336683848214,-0.149475,-0.06604,0.156677,0.973999
336683870686,-0.149536,-0.06604,0.156677,0.973999
336683893287,-0.149536,-0.06604,0.156677,0.973999
336683908172,-0.149536,-0.06604,0.156677,0.973999
336683938839,-0.149536,-0.06604,0.156677,0.973999
336683953188,-0.149597,-0.06604,0.156677,0.973999
336683968191,-0.149597,-0.065979,0.156677,0.973999
336683990751,-0.149597,-0.065979,0.156677,0.973999
336684013152,-0.149597,-0.065979,0.156677,0.973999
336684028166,-0.149597,-0.065979,0.156677,0.973999
336684050675,-0.149597,-0.065979,0.156677,0.973999
336684073200,-0.149658,-0.065979,0.156677,0.973999
336684091032,-0.149658,-0.065979,0.156677,0.973999
336684110665,-0.149658,-0.065918,0.156677,0.973999
336684133241,-0.149353,-0.0657959,0.15686,0.973999
336684165899,-0.148926,-0.0657349,0.157043,0.97406
336684170723,-0.14856,-0.0656128,0.157227,0.97406
336684193274,-0.148438,-0.0656738,0.157227,0.974121
336684211164,-0.148499,-0.0656738,0.157227,0.974121
336684230711,-0.14856,-0.0656738,0.157227,0.97406
336684253170,-0.148682,-0.0658569,0.157349,0.97406
336684276378,-0.148682,-0.0658569,0.157349,0.97406
336684290714,-0.148682,-0.0658569,0.157349,0.97406
336684313220,-0.148682,-0.0658569,0.157349,0.97406
336684329644,-0.148682,-0.0658569,0.157349,0.97406
336684350759,-0.148682,-0.0658569,0.157349,0.97406
336684373242,-0.148682,-0.0658569,0.157349,0.97406
336684389658,-0.148682,-0.0657959,0.157349,0.97406
336684410744,-0.148682,-0.0658569,0.157349,0.97406
336684433180,-0.148743,-0.0658569,0.157349,0.97406
336684455736,-0.148743,-0.0658569,0.157349,0.973999
336684470665,-0.148743,-0.0658569,0.157349,0.973999
336684493294,-0.148743,-0.0658569,0.157349,0.973999
336684509614,-0.148743,-0.0657959,0.157349,0.973999
336684532199,-0.148804,-0.0657959,0.157349,0.973999
336684553225,-0.148804,-0.0658569,0.157349,0.973999
336684569756,-0.148804,-0.0658569,0.157349,0.973999
336684590729,-0.148804,-0.0658569,0.157349,0.973999
336684613185,-0.148865,-0.0658569,0.157349,0.973999
336684629636,-0.148865,-0.0658569,0.157349,0.973999
336684650766,-0.148865,-0.065918,0.157349,0.973999
336684673260,-0.148865,-0.065918,0.157349,0.973999
336684689622,-0.148926,-0.065918,0.157349,0.973999
336684710701,-0.148926,-0.0658569,0.157349,0.973999
336684733175,-0.148926,-0.0658569,0.157349,0.973999
336684749699,-0.148926,-0.0658569,0.157349,0.973999
336684770717,-0.148926,-0.0658569,0.157349,0.973999
336684793229,-0.148987,-0.065918,0.157349,0.973999
336684809703,-0.148987,-0.065918,0.157349,0.973999
336684830716,-0.148987,-0.065918,0.157349,0.973999
336684853325,-0.148987,-0.065918,0.157349,0.973999
336684869677,-0.148987,-0.065918,0.157349,0.973999
336684890753,-0.149048,-0.065918,0.157349,0.973999
336684913265,-0.149048,-0.065918,0.157349,0.973999
336684929570,-0.149048,-0.065918,0.157349,0.973999
336684950778,-0.149109,-0.065918,0.157349,0.973938
336684973242,-0.149109,-0.065918,0.157349,0.973938
336684991104,-0.149109,-0.065918,0.157349,0.973938
336685010750,-0.14917,-0.065918,0.157349,0.973938
336685033215,-0.14917,-0.065918,0.157349,0.973938
336685049657,-0.14917,-0.065979,0.157349,0.973938
336685070827,-0.14917,-0.065979,0.157349,0.973938
336685093207,-0.14917,-0.065979,0.157349,0.973938
336685115757,-0.14917,-0.06604,0.157349,0.973938
336685132182,-0.14917,-0.06604,0.157349,0.973938
336685153264,-0.149231,-0.06604,0.157349,0.973938
336685169714,-0.149231,-0.06604,0.157349,0.973938
336685192212,-0.149292,-0.06604,0.157349,0.973938
336685213237,-0.149292,-0.0661011,0.157349,0.973938
336685235782,-0.149292,-0.0661011,0.157349,0.973938
336685252215,-0.149292,-0.0661011,0.157349,0.973938
336685273252,-0.149292,-0.0661011,0.157349,0.973938
336685291103,-0.149292,-0.0661011,0.157349,0.973938
336685312246,-0.149292,-0.0661011,0.157349,0.973938
336685333249,-0.149353,-0.0661011,0.157349,0.973938
336685349714,-0.149353,-0.0661011,0.157349,0.973938
336685378275,-0.149353,-0.0661011,0.157349,0.973938
336685394729,-0.149353,-0.0661011,0.157349,0.973938
336685409651,-0.149353,-0.0661011,0.157349,0.973938
336685438281,-0.149353,-0.0661011,0.157349,0.973938
336685453187,-0.149414,-0.0661011,0.157349,0.973938
336685469713,-0.149414,-0.0661621,0.157349,0.973938
336685492205,-0.149414,-0.0661621,0.157349,0.973938
336685513320,-0.149414,-0.0661621,0.157349,0.973877
336685529717,-0.149414,-0.0661621,0.157349,0.973877
336685552274,-0.149414,-0.0661621,0.157349,0.973877
336685573294,-0.149475,-0.0661621,0.157349,0.973877
336685589689,-0.149475,-0.0661621,0.157349,0.973877
336685612250,-0.149475,-0.0661621,0.157349,0.973877
336685633277,-0.14917,-0.0661621,0.157593,0.973938
336685649713,-0.14856,-0.0661621,0.157959,0.973938
336685673630,-0.147888,-0.0662231,0.158447,0.973938
336685693928,-0.1474,-0.0662842,0.158752,0.973999
336685710353,-0.14679,-0.0664062,0.158936,0.973999
336685731450,-0.146484,-0.0664062,0.158997,0.97406
336685753716,-0.146423,-0.0664673,0.158936,0.97406
336685768920,-0.146423,-0.0664673,0.158936,0.97406
336685791393,-0.146606,-0.0662231,0.158813,0.97406
336685813917,-0.146606,-0.0662231,0.158813,0.97406
336685828947,-0.146851,-0.0661011,0.15863,0.97406
336685851483,-0.146912,-0.065918,0.158447,0.974121
336685873754,-0.147034,-0.0657349,0.158142,0.974182
336685888947,-0.147095,-0.0654907,0.157715,0.974243
336685911427,-0.147156,-0.0651245,0.156982,0.974365
336685933926,-0.147278,-0.0645752,0.155762,0.974609
336685948951,-0.147644,-0.0639648,0.153625,0.974915
336685971432,-0.148376,-0.0632935,0.150635,0.975281
336685993740,-0.149231,-0.0621948,0.146667,0.97583
336686010309,-0.150085,-0.0606079,0.141541,0.976562
336686031380,-0.15094,-0.0591431,0.135132,0.977478
336686053992,-0.151672,-0.0576782,0.127319,0.978455
336686068924,-0.152283,-0.0567017,0.118225,0.979553
336686091236,-0.152222,-0.0560913,0.107849,0.980835
336686113937,-0.151855,-0.0558472,0.0962524,0.982117
336686128899,-0.151733,-0.0564575,0.0839233,0.983215
336686151450,-0.151978,-0.0574951,0.071106,0.984131
336686173784,-0.152161,-0.0582886,0.0581665,0.984924
336686188890,-0.15155,-0.0587158,0.0452271,0.985657
336686211380,-0.15094,-0.059082,0.0325317,0.986206
336686233977,-0.15033,-0.0596313,0.0200806,0.986633
336686248889,-0.149719,-0.0600586,0.00787354,0.986877
336686271424,-0.14856,-0.0601807,-0.00427246,0.987061
336686293873,-0.147339,-0.0601196,-0.0163574,0.987122
336686310374,-0.146362,-0.0600586,-0.0283813,0.987
336686331558,-0.145691,-0.0596924,-0.0404053,0.986694
336686353958,-0.145325,-0.0587769,-0.0525513,0.986206
336686370430,-0.144836,-0.057312,-0.0646973,0.985657
336686391433,-0.144958,-0.0551147,-0.0766602,0.984924
336686413998,-0.145447,-0.0524292,-0.0883789,0.984009
336686430368,-0.145874,-0.0488892,-0.0994263,0.983032
336686451475,-0.146423,-0.0441895,-0.109924,0.982056
336686473987,-0.146484,-0.0387573,-0.119507,0.981201
336686490422,-0.146301,-0.03302,-0.128174,0.980347
336686511507,-0.146057,-0.0264282,-0.135559,0.979553
336686534021,-0.144897,-0.0186157,-0.142029,0.979004
336686550411,-0.142944,-0.00939941,-0.147827,0.978577
336686571431,-0.140381,0.0010376,-0.152771,0.97821
336686601434,-0.137146,0.0126343,-0.156921,0.977966
336686610341,-0.134399,0.0258179,-0.160461,0.977478
336686631394,-0.131287,0.0410156,-0.163452,0.976929
336686655352,-0.126831,0.0578613,-0.165527,0.976257
336686670415,-0.12207,0.0755005,-0.166504,0.975525
336686691487,-0.117737,0.0942993,-0.166077,0.974487
336686713989,-0.112488,0.113892,-0.164246,0.973328
336686730386,-0.106689,0.133789,-0.161743,0.971863
336686751506,-0.10144,0.15387,-0.157959,0.970032
336686773710,-0.0963135,0.173523,-0.152832,0.968079
336686790384,-0.0908813,0.192505,-0.146973,0.965942
336686811537,-0.0858154,0.21051,-0.140442,0.963623
336686834012,-0.081665,0.227417,-0.132996,0.961182
336686850363,-0.0772705,0.242737,-0.12439,0.958923
336686871432,-0.0734863,0.25708,-0.114807,0.956726
336686893990,-0.0704346,0.269836,-0.104309,0.95459
336686910385,-0.0681152,0.280762,-0.0930786,0.95282
336686931502,-0.0662842,0.290344,-0.0814819,0.951111
336686954001,-0.0645142,0.298889,-0.0700073,0.949463
336686970449,-0.0629883,0.306396,-0.0582886,0.947998
336686991448,-0.0620728,0.312622,-0.0463257,0.946655
336687013986,-0.0615845,0.317688,-0.0343628,0.945496
336687029719,-0.0612183,0.321899,-0.022522,0.944519
336687051476,-0.0614624,0.325195,-0.0108643,0.943542
336687074013,-0.0617676,0.327698,0.0010376,0.942749
336687089723,-0.0619507,0.329285,0.0130615,0.942078
336687111405,-0.0627441,0.330139,0.0252686,0.941467
336687133760,-0.0639648,0.329956,0.0375977,0.94104
336687156430,-0.0652466,0.328857,0.0501099,0.940735
336687171455,-0.0665283,0.326843,0.0623779,0.940613
336687201462,-0.0675049,0.32373,0.074646,0.940735
336687223939,-0.0685425,0.319397,0.0870361,0.941101
336687232907,-0.0697021,0.313965,0.0997925,0.941589
336687253700,-0.0705566,0.307739,0.112671,0.942078
336687271205,-0.0714722,0.300598,0.12561,0.942688
336687292873,-0.0714722,0.292236,0.138489,0.943542
336687313962,-0.0713501,0.283203,0.150757,0.944397
336687329750,-0.0717163,0.273621,0.162659,0.945251
336687352860,-0.0718384,0.263306,0.174377,0.946045
336687373722,-0.0716553,0.252625,0.185486,0.946838
336687389710,-0.0720825,0.241577,0.196045,0.947571
336687412902,-0.0727539,0.229431,0.206299,0.948364
336687433974,-0.072937,0.216492,0.216248,0.949219
336687449770,-0.072998,0.203308,0.225464,0.949951
336687472880,-0.072876,0.190002,0.233643,0.950745
336687493961,-0.0724487,0.175903,0.24115,0.951599
336687516435,-0.0718384,0.161133,0.247864,0.952576
336687532858,-0.0716553,0.146606,0.253662,0.953369
336687553985,-0.071167,0.13269,0.258667,0.954102
336687569735,-0.0706177,0.119141,0.263184,0.954712
336687592909,-0.0704346,0.105774,0.266724,0.955322
336687613949,-0.0710449,0.0927124,0.269409,0.955872
336687636901,-0.0709839,0.0801392,0.27124,0.956482
336687652922,-0.0700684,0.0683594,0.272461,0.957153
336687673957,-0.069397,0.0569458,0.272766,0.957825
336687689702,-0.0688477,0.0462036,0.272156,0.958618
336687712859,-0.0675049,0.036438,0.270813,0.959534
336687733975,-0.0651245,0.0273438,0.268799,0.960571
336687756487,-0.0629883,0.0185547,0.26593,0.961731
336687772907,-0.0613403,0.010376,0.261841,0.963074
336687793972,-0.0592651,0.00384521,0.256653,0.964661
336687809748,-0.0565796,-0.00128174,0.25061,0.966431
336687832923,-0.0541382,-0.0057373,0.243347,0.968384
336687854002,-0.0523071,-0.00976562,0.234863,0.97052
336687869759,-0.0507202,-0.0127563,0.225525,0.972778
336687892906,-0.0490723,-0.0148926,0.215393,0.975159
336687913984,-0.0471191,-0.0165405,0.204895,0.977478
336687929729,-0.0454102,-0.0181885,0.193787,0.979797
336687952880,-0.0440063,-0.0198364,0.182007,0.982056
336687974009,-0.0424194,-0.0214844,0.169495,0.984375
336687989756,-0.0405884,-0.0233765,0.156433,0.986572
336688012258,-0.0383301,-0.0256348,0.143066,0.988586
336688033750,-0.0363159,-0.0281372,0.129883,0.990417
336688049782,-0.0344238,-0.0308838,0.116577,0.992065
336688072264,-0.0332031,-0.0339355,0.102905,0.99353
336688094016,-0.0327148,-0.0367432,0.0889893,0.994812
336688109825,-0.0319824,-0.0391235,0.0751343,0.99585
336688132298,-0.0316162,-0.0411987,0.0615845,0.996704
336688155463,-0.0327148,-0.0430908,0.0480347,0.997375
336688169774,-0.0344849,-0.0443726,0.0343018,0.997803
336688192258,-0.0359497,-0.0447998,0.0211792,0.998108
336688215487,-0.0372314,-0.0449219,0.00860596,0.99823
336688229782,-0.0395508,-0.0448608,-0.00360107,0.998169
336688266473,-0.0426025,-0.0444336,-0.015564,0.997986
336688275559,-0.0456543,-0.0430908,-0.0267334,0.99762
336688296634,-0.0484009,-0.0414429,-0.0368652,0.997253
336688312304,-0.0509644,-0.039917,-0.0458984,0.996826
336688335499,-0.0543213,-0.038269,-0.0542603,0.996277
336688356530,-0.0579224,-0.0365601,-0.0617065,0.995728
336688372333,-0.06073,-0.034729,-0.0680542,0.995178
336688395562,-0.0631714,-0.0330811,-0.0731812,0.994751
336688416622,-0.0658569,-0.0316772,-0.0772095,0.994324
336688432310,-0.0683594,-0.0307617,-0.0799561,0.993958
336688456224,-0.0702515,-0.0302734,-0.0814209,0.993713
336688476572,-0.0718994,-0.0300903,-0.081543,0.993591
336688492324,-0.0740356,-0.0303345,-0.0802612,0.99353
336688515563,-0.076355,-0.0311279,-0.0776978,0.99353
336688536307,-0.0788574,-0.0320435,-0.0739136,0.993591
336688552327,-0.081665,-0.0328369,-0.0689697,0.993713
336688575556,-0.0846558,-0.0332642,-0.0626831,0.993835
336688596657,-0.0877686,-0.0332642,-0.0551758,0.994019
336688612342,-0.0910034,-0.0331421,-0.046814,0.994202
336688635449,-0.0942993,-0.03302,-0.0377808,0.994263
336688656487,-0.0975952,-0.0325928,-0.0283203,0.994263
336688672395,-0.101257,-0.0321045,-0.0181274,0.994141
336688695562,-0.105347,-0.0324097,-0.00714111,0.993835
336688716610,-0.109619,-0.0333862,0.00463867,0.993347
336688732343,-0.114075,-0.03479,0.0174561,0.992676
336688755552,-0.117859,-0.0361938,0.0311279,0.991882
336688776538,-0.121216,-0.0377808,0.0457153,0.990845
336688792298,-0.124023,-0.0401001,0.0610962,0.989563
336688805936,-0.12616,-0.0430298,0.0773926,0.988037
336688828335,-0.127808,-0.0463257,0.0942383,0.986206
336688851608,-0.129944,-0.0495605,0.111328,0.983948
336688865884,-0.132202,-0.0529785,0.128479,0.981384
336688888431,-0.133911,-0.0566406,0.145508,0.978577
336688911600,-0.135132,-0.0603638,0.162231,0.975586
336688925939,-0.135742,-0.0637207,0.178467,0.972412
336688948409,-0.135803,-0.0668335,0.19397,0.969238
336688971612,-0.135925,-0.0701294,0.208557,0.965942
336688985914,-0.135681,-0.0734863,0.221985,0.962708
336689008409,-0.134705,-0.0765381,0.233948,0.959778
336689031619,-0.133484,-0.0792847,0.244324,0.957153
336689045936,-0.131897,-0.0822144,0.252747,0.954956
336689068427,-0.130249,-0.0853882,0.258911,0.953247
336689091603,-0.129028,-0.088501,0.263123,0.951965
336689105954,-0.128235,-0.0912476,0.265686,0.951111
336689128416,-0.12738,-0.0933228,0.26709,0.950623
336689151635,-0.12677,-0.0948486,0.267212,0.9505
336689165980,-0.126709,-0.0963135,0.266357,0.950623
336689188428,-0.127075,-0.0974731,0.265137,0.950806
336689211649,-0.127869,-0.0982056,0.264038,0.950928
336689225946,-0.128967,-0.0986328,0.263245,0.950928
336689248400,-0.129883,-0.098938,0.262695,0.950928
336689271320,-0.130371,-0.0993652,0.262329,0.950928
336689285966,-0.130981,-0.0997925,0.262146,0.950867
336689308407,-0.131775,-0.100159,0.261963,0.950745
336689331572,-0.132507,-0.100159,0.261597,0.950745
336689345887,-0.132935,-0.0999146,0.260315,0.95105
336689368407,-0.134216,-0.0994263,0.258911,0.951294
336689391619,-0.135742,-0.0992432,0.257996,0.951355
336689405939,-0.13623,-0.0983887,0.25708,0.95166
336689428447,-0.137451,-0.0974731,0.255981,0.951843
336689451623,-0.138367,-0.0971069,0.255676,0.951843
336689465962,-0.138855,-0.0970459,0.255981,0.951721
336689488456,-0.139038,-0.0966187,0.255981,0.951721
336689511652,-0.139465,-0.0960693,0.255676,0.951782
336689525967,-0.140381,-0.0959473,0.25531,0.951782
336689548476,-0.140442,-0.0958862,0.25531,0.951721
336689571619,-0.140564,-0.0960693,0.255005,0.951782
336689585975,-0.14093,-0.0961914,0.254456,0.951904
336689608332,-0.141113,-0.0957642,0.253601,0.952148
336689631623,-0.14209,-0.0952148,0.252747,0.952271
336689645951,-0.143005,-0.0947876,0.252014,0.952393
336689668474,-0.143127,-0.0942993,0.250793,0.952698
336689691625,-0.144348,-0.0934448,0.249451,0.952942
336689705908,-0.145203,-0.0930786,0.249512,0.952881
336689728457,-0.144836,-0.0930176,0.25,0.95282
336689751616,-0.144592,-0.0931396,0.249939,0.95282
336689765904,-0.144287,-0.0932007,0.249268,0.953064
336689788381,-0.14502,-0.0928345,0.248718,0.953125
336689811627,-0.145813,-0.0927124,0.248657,0.953003
336689825951,-0.145935,-0.0926514,0.248657,0.953003
336689848492,-0.145813,-0.0926514,0.248413,0.953064
336689871599,-0.145752,-0.0926514,0.247803,0.953247
336689885955,-0.145813,-0.0925903,0.247864,0.953247
336689908414,-0.145447,-0.0926514,0.248474,0.953125
336689931709,-0.144958,-0.0926514,0.249023,0.953064
336689945992,-0.14386,-0.0928345,0.249023,0.953247
336689968503,-0.14325,-0.0933228,0.248169,0.953491
336689991560,-0.144165,-0.0936279,0.247925,0.953369
336690005910,-0.144226,-0.0936279,0.247925,0.953369
336690028456,-0.144287,-0.0935059,0.247375,0.953491
336690051024,-0.14502,-0.0936279,0.246277,0.953674
336690065984,-0.145874,-0.0935669,0.245544,0.953735
336690088405,-0.146545,-0.0933228,0.2453,0.953735
336690104822,-0.146545,-0.0932007,0.2453,0.953735
336690125982,-0.146484,-0.0933228,0.245117,0.953796
336690148466,-0.146301,-0.09375,0.244873,0.953857
336690164928,-0.146118,-0.0941162,0.24469,0.953857
336690185910,-0.145935,-0.0940552,0.244751,0.953857
336690208488,-0.14563,-0.093689,0.244873,0.953918
336690224917,-0.145386,-0.09375,0.244873,0.953979
336690245949,-0.145264,-0.0941162,0.24469,0.953979
336690268543,-0.145325,-0.0941162,0.24469,0.953979
336690284908,-0.145386,-0.0939941,0.244934,0.953918
336690305980,-0.145386,-0.0939941,0.244934,0.953918
336690328416,-0.145386,-0.0939941,0.244934,0.953918
336690350997,-0.145447,-0.0939941,0.244934,0.953918
336690365952,-0.145447,-0.0938721,0.245117,0.953857
336690388464,-0.145203,-0.0939331,0.245178,0.953918
336690404948,-0.145264,-0.0939331,0.245178,0.953918
336690425993,-0.145203,-0.0939331,0.245178,0.953918
336690448539,-0.145264,-0.0939331,0.245178,0.953918
336690470933,-0.145264,-0.0939331,0.245178,0.953857
336690485957,-0.145325,-0.0938721,0.245178,0.953857
336690508426,-0.145264,-0.093689,0.245117,0.953918
336690524843,-0.145325,-0.093689,0.245117,0.953918
336690546059,-0.145325,-0.093689,0.245117,0.953918
336690568484,-0.145386,-0.093689,0.245117,0.953918
336690584966,-0.145386,-0.0936279,0.245117,0.953918
336690606169,-0.145325,-0.0936279,0.245361,0.953857
336690628426,-0.145386,-0.093689,0.245544,0.953796
336690644930,-0.145325,-0.09375,0.245789,0.953735
336690665907,-0.145386,-0.09375,0.245789,0.953735
336690688539,-0.145386,-0.09375,0.245789,0.953735
336690704903,-0.145447,-0.093689,0.245789,0.953735
336690726087,-0.145447,-0.093689,0.245789,0.953735
336690748520,-0.145325,-0.0935669,0.24585,0.953735
336690764887,-0.145386,-0.0935669,0.24585,0.953735
336690786028,-0.145264,-0.0935669,0.245972,0.953735
336690808501,-0.145081,-0.0933838,0.246277,0.953674
336690824898,-0.144836,-0.0933228,0.246643,0.953613
336690847398,-0.14447,-0.0933838,0.247009,0.953613
336690868426,-0.144348,-0.0936279,0.247742,0.953369
336690884942,-0.14386,-0.0939331,0.248596,0.953247
336690907425,-0.143616,-0.0942383,0.249451,0.953003
336690929993,-0.143311,-0.0947876,0.250244,0.952759
336690944869,-0.142395,-0.0947876,0.250793,0.952759
336690967402,-0.142212,-0.0950317,0.25116,0.952698
336690988468,-0.142395,-0.0956421,0.251709,0.952454
336691004955,-0.142395,-0.0957642,0.252502,0.952209
336691027510,-0.142273,-0.0957642,0.253235,0.952026
336691048420,-0.141968,-0.0957031,0.253479,0.952026
336691064876,-0.141968,-0.0956421,0.253479,0.952026
336691087354,-0.142273,-0.0958252,0.253174,0.952087
336691108520,-0.142883,-0.0967407,0.253174,0.951904
336691124906,-0.1427,-0.0977783,0.253479,0.951721
336691147399,-0.142761,-0.0983887,0.253601,0.951599
336691168481,-0.142761,-0.0983887,0.253601,0.951599
336691184901,-0.142883,-0.0979614,0.253296,0.951721
336691207358,-0.143066,-0.0976562,0.252869,0.951843
336691228576,-0.14325,-0.0976562,0.252686,0.951843
336691244908,-0.143372,-0.0976562,0.252686,0.951843
336691267459,-0.143311,-0.0974121,0.252686,0.951904
336691288481,-0.14325,-0.0973511,0.252808,0.951843
336691304912,-0.143127,-0.0974731,0.253113,0.951782
336691327476,-0.142456,-0.0976562,0.253174,0.951843
336691348573,-0.14209,-0.0977783,0.252991,0.951904
336691364957,-0.142151,-0.0977783,0.252991,0.951904
336691387436,-0.142273,-0.0979614,0.252747,0.951965
336691408512,-0.142273,-0.0979004,0.252136,0.952148
336691424990,-0.142822,-0.0980835,0.251526,0.952209
336691447437,-0.14325,-0.0983276,0.250916,0.952271
336691468461,-0.143616,-0.0985718,0.250549,0.952271
336691484907,-0.144165,-0.0986328,0.250183,0.952271
336691507431,-0.144348,-0.0986328,0.249756,0.952393
336691528548,-0.144714,-0.0982056,0.249268,0.952454
336691544913,-0.144958,-0.0980835,0.248962,0.952515
336691567435,-0.145447,-0.0983276,0.248901,0.952454
336691588513,-0.145447,-0.0983276,0.248901,0.952454
336691604920,-0.145569,-0.0983276,0.248657,0.952515
336691627488,-0.145752,-0.0980835,0.248108,0.952637
336691648401,-0.146484,-0.0981445,0.24823,0.952515
336691664928,-0.146545,-0.0981445,0.24823,0.952454
336691687485,-0.146729,-0.0983276,0.24823,0.952454
336691708501,-0.146973,-0.0984497,0.248108,0.952393
336691724937,-0.146973,-0.0984497,0.248108,0.952393
336691747612,-0.147095,-0.0980835,0.248169,0.952393
336691769965,-0.147278,-0.0977783,0.248291,0.952393
336691786429,-0.147034,-0.0977173,0.248352,0.952393
336691807459,-0.147034,-0.0977173,0.248352,0.952393
336691829908,-0.146851,-0.0975342,0.248352,0.952454
336691844959,-0.146851,-0.0975342,0.248352,0.952454
336691867488,-0.146851,-0.0976562,0.248657,0.952393
336691889938,-0.146667,-0.0975952,0.24884,0.952332
336691904129,-0.146484,-0.0975952,0.248657,0.952393
336691926715,-0.146484,-0.0976562,0.248474,0.952454
336691949176,-0.146545,-0.0976562,0.248474,0.952454
336691965580,-0.146545,-0.0976562,0.248474,0.952454
336691986711,-0.146545,-0.0976562,0.248474,0.952454
336692009231,-0.146301,-0.0975342,0.248291,0.952576
336692025655,-0.14624,-0.0975952,0.247925,0.952637
336692046718,-0.146484,-0.0978394,0.247742,0.952637
336692069190,-0.146484,-0.0978394,0.247742,0.952637
336692085610,-0.146545,-0.0978394,0.247742,0.952637
336692106686,-0.146545,-0.0977783,0.247742,0.952637
336692129198,-0.146606,-0.0977783,0.24762,0.952698
336692145616,-0.146423,-0.0977783,0.247681,0.952698
336692166737,-0.146423,-0.0978394,0.247864,0.952637
336692189189,-0.146423,-0.0978394,0.247864,0.952637
336692205644,-0.146423,-0.0978394,0.247864,0.952637
336692226739,-0.146423,-0.0978394,0.247864,0.952637
336692249244,-0.146484,-0.0978394,0.247864,0.952637
336692265614,-0.146484,-0.0978394,0.247864,0.952637
336692286393,-0.146484,-0.0978394,0.247864,0.952637
336692309275,-0.146484,-0.0978394,0.247864,0.952637
336692325638,-0.146545,-0.0978394,0.247864,0.952576
336692346710,-0.146484,-0.0977783,0.248108,0.952576
336692369203,-0.146484,-0.0977783,0.248108,0.952576
336692385638,-0.146545,-0.0977783,0.248108,0.952576
336692406769,-0.146545,-0.0977783,0.248108,0.952576
336692429224,-0.146606,-0.0977173,0.248413,0.952454
336692445660,-0.146179,-0.0976562,0.248718,0.952454
336692466630,-0.145874,-0.0977173,0.248779,0.952454
336692489166,-0.145874,-0.0977173,0.248779,0.952454
336692505631,-0.145935,-0.0977783,0.248779,0.952454
336692526657,-0.145996,-0.0977173,0.248779,0.952454
336692549244,-0.146057,-0.0977783,0.249023,0.952393
336692565648,-0.146057,-0.0977783,0.249023,0.952393
336692586751,-0.145874,-0.0975342,0.24884,0.952454
336692610632,-0.145813,-0.09729,0.248657,0.952576
336692625676,-0.145813,-0.09729,0.248657,0.952576
336692646736,-0.145874,-0.09729,0.248657,0.952576
336692669194,-0.145874,-0.09729,0.248657,0.952576
336692685656,-0.145874,-0.0973511,0.248657,0.952576
336692706713,-0.145874,-0.09729,0.248657,0.952576
336692729204,-0.145935,-0.09729,0.248657,0.952576
336692744907,-0.145935,-0.09729,0.248657,0.952515
336692766700,-0.145752,-0.0973511,0.248596,0.952576
336692789264,-0.145813,-0.0973511,0.248596,0.952576
336692805045,-0.145813,-0.0973511,0.248596,0.952576
336692826709,-0.145874,-0.0975342,0.248657,0.952515
336692849267,-0.145874,-0.0975342,0.248657,0.952515
336692865006,-0.145874,-0.0974731,0.248657,0.952515
336692886762,-0.145874,-0.0974731,0.248657,0.952515
336692909257,-0.145935,-0.0974731,0.248657,0.952515
336692924998,-0.145935,-0.0974731,0.248657,0.952515
336692948192,-0.145935,-0.0975342,0.248657,0.952515
336692969246,-0.145996,-0.0975342,0.248657,0.952515
336692984956,-0.145996,-0.0975342,0.248657,0.952515
336693008127,-0.145996,-0.0975342,0.248657,0.952515
336693029276,-0.145874,-0.0974731,0.248657,0.952515
336693045001,-0.14563,-0.0974731,0.248596,0.952576
336693068145,-0.145691,-0.0974731,0.248596,0.952576
336693089270,-0.145691,-0.0974731,0.248596,0.952576
336693104930,-0.145874,-0.0976562,0.248657,0.952515
336693128106,-0.145874,-0.0976562,0.248657,0.952515
336693149380,-0.145874,-0.0976562,0.248657,0.952515
336693164992,-0.145813,-0.0973511,0.248596,0.952576
336693188149,-0.145813,-0.0973511,0.248596,0.952576
336693209192,-0.145874,-0.0973511,0.248596,0.952576
336693224955,-0.145874,-0.0973511,0.248596,0.952576
336693248108,-0.145874,-0.0973511,0.248596,0.952576
336693269222,-0.145874,-0.09729,0.248596,0.952576
336693285168,-0.145874,-0.09729,0.248596,0.952576
336693308145,-0.145874,-0.0973511,0.248596,0.952576
336693329211,-0.145874,-0.0973511,0.248596,0.952576
336693345015,-0.145874,-0.0973511,0.248596,0.952576
336693368223,-0.145874,-0.0973511,0.248596,0.952576
336693389240,-0.145935,-0.0973511,0.248596,0.952576
336693405116,-0.145935,-0.0973511,0.248596,0.952576
336693428159,-0.145935,-0.0973511,0.248596,0.952576
336693449269,-0.145996,-0.097168,0.248474,0.952576
336693465035,-0.146179,-0.0969849,0.248413,0.952637
336693488183,-0.146179,-0.0969849,0.248413,0.952637
336693509251,-0.146423,-0.0967407,0.248535,0.952576
336693525006,-0.146484,-0.0967407,0.248535,0.952576
336693548209,-0.146423,-0.0967407,0.248535,0.952576
336693569286,-0.146484,-0.0967407,0.248535,0.952515
336693585029,-0.146484,-0.0967407,0.248596,0.952576
336693608131,-0.146484,-0.0967407,0.248596,0.952515
336693629214,-0.146851,-0.0968018,0.248657,0.952454
336693644959,-0.146851,-0.0968018,0.248657,0.952454
336693667539,-0.146851,-0.0968018,0.248657,0.952454
336693689263,-0.146851,-0.0967407,0.248657,0.952454
336693705054,-0.146851,-0.0967407,0.248657,0.952454
336693727573,-0.146912,-0.0968018,0.248657,0.952454
336693749248,-0.146912,-0.0968018,0.248657,0.952454
336693765072,-0.146912,-0.0967407,0.248657,0.952454
336693787573,-0.146973,-0.0967407,0.248657,0.952454
336693809288,-0.146851,-0.0969849,0.248657,0.952454
336693825052,-0.146851,-0.0969849,0.248657,0.952454
336693847577,-0.146851,-0.0969849,0.248657,0.952454
336693870703,-0.146912,-0.0969849,0.248657,0.952454
336693885019,-0.146912,-0.0969238,0.248657,0.952454
336693907556,-0.146912,-0.0969238,0.248657,0.952454
336693930672,-0.146912,-0.0969238,0.248657,0.952454
336693945108,-0.146973,-0.0969238,0.248657,0.952454
336693967552,-0.146912,-0.0969849,0.248657,0.952454
336693990707,-0.146973,-0.0969238,0.248657,0.952393
336694005033,-0.14679,-0.0968628,0.24884,0.952393
336694027552,-0.146484,-0.0967407,0.248901,0.952454
336694050714,-0.146545,-0.0967407,0.248901,0.952454
336694065023,-0.147034,-0.0970459,0.249084,0.952271
336694087513,-0.146973,-0.0974731,0.249329,0.952209
336694110639,-0.147034,-0.0974731,0.249329,0.952209
336694125001,-0.146973,-0.0970459,0.249329,0.952271
336694148015,-0.146851,-0.0966797,0.249023,0.952393
336694170699,-0.146545,-0.0963745,0.248718,0.952515
336694184996,-0.14679,-0.0965576,0.248535,0.952515
336694207543,-0.146667,-0.0969238,0.248718,0.952454
336694230686,-0.146667,-0.0969238,0.249084,0.952393
336694245038,-0.146484,-0.0969849,0.249329,0.952332
336694267534,-0.146362,-0.097229,0.249329,0.952332
336694290742,-0.146362,-0.097229,0.249329,0.952332
336694305000,-0.146362,-0.097229,0.249329,0.952332
336694327508,-0.146545,-0.0970459,0.249268,0.952332
336694350654,-0.146606,-0.0970459,0.249268,0.952332
336694371775,-0.146667,-0.0969849,0.249268,0.952271
336694390248,-0.146606,-0.097229,0.249268,0.952271
336694410691,-0.146851,-0.0974121,0.24939,0.952209
336694431860,-0.146729,-0.0977173,0.249512,0.952148
336694447506,-0.146729,-0.0977173,0.249512,0.952148
336694470678,-0.146729,-0.0977173,0.249512,0.952148
336694491724,-0.146729,-0.0977173,0.249512,0.952148
336694507533,-0.146729,-0.0977173,0.249512,0.952148
336694530680,-0.14679,-0.0977173,0.249512,0.952148
336694551942,-0.14679,-0.0977173,0.249512,0.952148
336694567908,-0.14679,-0.0977173,0.249512,0.952148
336694590671,-0.146851,-0.0977173,0.249512,0.952148
336694611752,-0.146729,-0.0980225,0.249512,0.952148
336694627500,-0.146729,-0.0980225,0.249512,0.952148
336694650041,-0.146729,-0.0980225,0.249512,0.952148
336694671732,-0.14679,-0.0980225,0.249512,0.952148
336694687599,-0.14679,-0.0980225,0.249512,0.952148
336694710050,-0.14679,-0.0980225,0.249512,0.952148
336694731756,-0.14679,-0.0980225,0.249512,0.952148
336694747590,-0.14679,-0.0980225,0.249512,0.952148
336694770023,-0.14679,-0.0980225,0.249512,0.952148
336694793247,-0.146851,-0.0980225,0.249512,0.952087
336694807576,-0.146851,-0.0980225,0.249512,0.952087
336694830038,-0.146851,-0.0980225,0.249512,0.952087
336694853148,-0.146851,-0.0980225,0.249512,0.952087
336694867649,-0.146851,-0.0980225,0.249512,0.952087
336694891138,-0.146851,-0.0980835,0.249512,0.952087
336694913279,-0.146851,-0.0980835,0.249512,0.952087
336694927546,-0.146851,-0.0980835,0.249512,0.952087
336694950025,-0.146912,-0.0980835,0.249512,0.952087
336694973185,-0.146912,-0.0980835,0.249512,0.952087
336694987548,-0.146912,-0.0980835,0.249512,0.952087
336695010110,-0.146912,-0.0980835,0.249512,0.952087
336695023616,-0.146912,-0.0981445,0.249512,0.952087
336695046862,-0.146912,-0.0981445,0.249512,0.952087
336695061111,-0.146912,-0.0980835,0.249512,0.952087
336695083560,-0.146912,-0.0981445,0.249512,0.952087
336695106740,-0.146973,-0.0981445,0.249512,0.952087
336695121129,-0.146973,-0.0981445,0.249512,0.952087
336695143630,-0.146973,-0.0981445,0.249512,0.952087
336695166779,-0.146973,-0.0981445,0.249512,0.952087
336695181066,-0.146973,-0.0981445,0.249512,0.952087
336695203602,-0.146973,-0.0981445,0.249512,0.952087
336695226816,-0.146973,-0.0981445,0.249512,0.952087
336695241116,-0.146973,-0.0980835,0.249512,0.952087
336695263666,-0.146973,-0.0980835,0.249512,0.952087
336695286825,-0.146973,-0.0980835,0.249512,0.952087
336695301136,-0.146973,-0.0980835,0.249512,0.952087
336695323623,-0.146973,-0.0981445,0.249512,0.952087
336695346803,-0.147034,-0.0981445,0.249512,0.952087
336695361129,-0.147034,-0.0980835,0.249512,0.952087
336695383617,-0.147034,-0.0980835,0.249512,0.952087
336695406831,-0.147034,-0.0980835,0.249512,0.952087
336695421078,-0.147034,-0.0980835,0.249512,0.952087
336695443642,-0.147095,-0.0980835,0.249512,0.952087
336695466784,-0.146973,-0.0982666,0.249573,0.952026
336695481131,-0.146973,-0.0982666,0.249573,0.952026
336695503660,-0.146973,-0.0983276,0.249573,0.952026
336695526860,-0.147034,-0.0983276,0.249573,0.952026
336695541169,-0.147034,-0.0983276,0.249573,0.952026
336695563658,-0.147034,-0.0983276,0.249573,0.952026
336695587054,-0.147095,-0.0983276,0.249573,0.952026
336695609325,-0.147095,-0.0983276,0.249573,0.952026
336695623604,-0.147095,-0.0983276,0.249573,0.952026
336695648757,-0.147095,-0.0983276,0.249573,0.952026
336695661133,-0.147156,-0.0983276,0.249573,0.952026
336695684408,-0.147095,-0.0983276,0.249573,0.952026
336695714502,-0.147156,-0.0983276,0.249573,0.952026
336695722820,-0.147156,-0.0983276,0.249573,0.952026
336695746586,-0.147217,-0.0983276,0.249573,0.952026
336695767846,-0.147217,-0.0983276,0.249573,0.952026
336695788972,-0.147217,-0.0983276,0.249573,0.952026
336695807232,-0.147217,-0.0983276,0.249573,0.952026
336695826726,-0.147217,-0.0983276,0.249573,0.952026
336695844340,-0.147217,-0.0983887,0.249573,0.952026
336695863637,-0.147278,-0.0983887,0.249573,0.952026
336695887527,-0.147278,-0.0983887,0.249573,0.951965
336695905579,-0.147278,-0.0983887,0.249573,0.951965
336695927521,-0.1474,-0.0982056,0.249512,0.952026
336695947398,-0.147461,-0.0981445,0.249573,0.951965
336695961268,-0.1474,-0.0981445,0.249573,0.952026
336695985271,-0.147461,-0.0981445,0.249573,0.952026
336696006151,-0.147461,-0.0981445,0.249573,0.951965
336696021156,-0.147522,-0.0981445,0.249573,0.951965
336696043679,-0.147522,-0.0982056,0.249573,0.951965
336696066179,-0.147522,-0.0982056,0.249573,0.951965
336696081127,-0.147583,-0.0982056,0.249573,0.951965
336696103649,-0.147583,-0.0982056,0.249573,0.951965
336696126163,-0.147644,-0.0982056,0.249573,0.951965
336696141184,-0.147644,-0.0982056,0.249573,0.951965
336696163697,-0.147644,-0.0982056,0.249573,0.951965
336696186122,-0.147705,-0.0982056,0.249573,0.951965
336696201160,-0.147705,-0.0981445,0.249573,0.951965
336696223653,-0.147705,-0.0981445,0.249573,0.951965
336696246178,-0.147705,-0.0981445,0.249573,0.951965
336696261187,-0.147766,-0.0981445,0.249573,0.951965
336696283978,-0.147766,-0.0981445,0.249573,0.951965
336696306158,-0.147766,-0.0982056,0.249573,0.951965
336696321164,-0.147766,-0.0982056,0.249573,0.951965
336696343714,-0.147766,-0.0981445,0.249573,0.951965
336696366179,-0.147827,-0.0982056,0.249573,0.951904
336696381189,-0.147827,-0.0982056,0.249573,0.951904
336696404808,-0.147827,-0.0982056,0.249573,0.951904
336696426200,-0.147827,-0.0982056,0.249573,0.951904
336696441159,-0.147827,-0.0982056,0.249573,0.951904
336696463693,-0.147827,-0.0982056,0.249573,0.951904
336696486309,-0.147888,-0.0982056,0.249573,0.951904
336696502641,-0.147888,-0.0982056,0.249573,0.951904
336696523677,-0.147888,-0.0982056,0.249573,0.951904
336696546166,-0.147888,-0.0982056,0.249573,0.951904
336696562620,-0.147888,-0.0982056,0.249573,0.951904
336696583669,-0.147888,-0.0982056,0.249573,0.951904
336696606211,-0.147949,-0.0982056,0.249573,0.951904
336696622861,-0.147949,-0.0982056,0.249573,0.951904
336696644687,-0.147949,-0.0982056,0.249573,0.951904
336696666179,-0.147949,-0.0982056,0.249573,0.951904
336696682617,-0.147949,-0.0982056,0.249573,0.951904
336696703669,-0.147949,-0.0982056,0.249573,0.951904
336696726315,-0.147949,-0.0982056,0.249573,0.951904
336696744650,-0.14801,-0.0982056,0.249573,0.951904
336696763894,-0.14801,-0.0982056,0.249573,0.951904
336696786212,-0.14801,-0.0982056,0.249573,0.951904
336696802647,-0.14801,-0.0982056,0.249573,0.951904
336696823708,-0.14801,-0.0982056,0.249573,0.951904
336696846329,-0.14801,-0.0982056,0.249573,0.951904
336696868644,-0.14801,-0.0982056,0.249573,0.951904
336696883681,-0.14801,-0.0982056,0.249573,0.951904
336696906164,-0.14801,-0.0982056,0.249573,0.951904
336696922644,-0.148071,-0.0982056,0.249573,0.951904
336696943703,-0.148071,-0.0982056,0.249573,0.951904
336696966242,-0.148071,-0.0982056,0.249573,0.951904
336696982625,-0.148071,-0.0982056,0.249573,0.951904
336697011899,-0.148132,-0.0982056,0.249573,0.951904
336697026242,-0.148132,-0.0982056,0.249573,0.951904
336697042632,-0.148132,-0.0982056,0.249573,0.951904
336697063726,-0.148132,-0.0982056,0.249573,0.951843
336697086205,-0.148132,-0.0982056,0.249573,0.951904
336697102656,-0.148193,-0.0982056,0.249573,0.951843
336697123686,-0.148193,-0.0982056,0.249573,0.951843
336697146263,-0.148193,-0.0982056,0.249573,0.951843
336697162613,-0.148193,-0.0982056,0.249573,0.951843
336697183700,-0.148193,-0.0981445,0.249573,0.951843
336697206151,-0.148193,-0.0981445,0.249573,0.951843
336697222659,-0.148193,-0.0981445,0.249573,0.951843
336697243666,-0.148193,-0.0981445,0.249573,0.951843
336697266241,-0.148254,-0.0981445,0.249573,0.951843
336697282629,-0.148254,-0.0981445,0.249573,0.951843
336697303681,-0.148254,-0.0981445,0.249573,0.951843
336697326326,-0.148254,-0.0981445,0.249573,0.951843
336697342666,-0.148315,-0.0981445,0.249573,0.951843
336697363690,-0.148315,-0.0980835,0.249634,0.951843
336697386281,-0.148315,-0.0980835,0.249634,0.951843
336697402657,-0.148315,-0.0980835,0.249634,0.951843
336697423699,-0.148315,-0.0980835,0.249573,0.951843
336697446231,-0.148315,-0.0981445,0.249573,0.951843
336697462623,-0.148315,-0.0980835,0.249634,0.951843
336697485114,-0.148315,-0.0980835,0.249634,0.951843
336697506193,-0.148315,-0.0980835,0.249634,0.951843
336697522635,-0.148376,-0.0981445,0.249634,0.951843
336697545150,-0.148376,-0.0981445,0.249634,0.951843
336697566196,-0.148376,-0.0981445,0.249634,0.951843
336697582657,-0.148376,-0.0981445,0.249573,0.951843
336697605224,-0.148376,-0.0981445,0.249634,0.951843
336697626249,-0.148376,-0.0981445,0.249634,0.951843
336697642663,-0.148376,-0.0981445,0.249634,0.951843
336697665148,-0.148438,-0.0981445,0.249634,0.951843
336697686218,-0.148438,-0.0981445,0.249634,0.951843
336697702683,-0.148438,-0.0981445,0.249634,0.951843
336697725204,-0.148438,-0.0981445,0.249634,0.951843
336697746152,-0.148438,-0.0981445,0.249634,0.951843
336697762701,-0.148438,-0.0981445,0.249573,0.951843
336697785127,-0.148438,-0.0981445,0.249573,0.951843
336697806210,-0.148438,-0.0981445,0.249573,0.951843
336697822649,-0.148438,-0.0981445,0.249573,0.951843
336697845125,-0.148499,-0.0981445,0.249573,0.951843
336697869130,-0.148499,-0.0982056,0.249573,0.951843
336697882680,-0.148438,-0.0982056,0.249573,0.951843
336697905181,-0.148438,-0.0982056,0.249573,0.951843
336697926239,-0.148438,-0.0982056,0.249573,0.951843
336697942686,-0.148499,-0.0982056,0.249573,0.951843
336697965190,-0.148438,-0.0982056,0.249573,0.951843
336697986232,-0.148499,-0.0982056,0.249573,0.951843
336698002706,-0.148499,-0.0982056,0.249573,0.951843
336698025156,-0.148499,-0.0982056,0.249573,0.951843
336698046219,-0.148499,-0.0982056,0.249573,0.951782
336698062661,-0.148499,-0.0982666,0.249573,0.951782
336698085192,-0.148499,-0.0982666,0.249573,0.951782
336698106233,-0.148499,-0.0982666,0.249573,0.951782
336698121906,-0.148499,-0.0982666,0.249573,0.951782
336698144366,-0.14856,-0.0982666,0.249573,0.951782
336698166896,-0.14856,-0.0982666,0.249573,0.951782
336698181886,-0.14856,-0.0982666,0.249573,0.951782
336698204365,-0.14856,-0.0983276,0.249573,0.951782
336698226935,-0.14856,-0.0983276,0.249573,0.951782
336698241898,-0.14856,-0.0983276,0.249573,0.951782
336698271686,-0.148621,-0.0983276,0.249573,0.951782
336698287388,-0.14856,-0.0983276,0.249573,0.951782
336698302335,-0.14856,-0.0983276,0.249573,0.951782
336698324413,-0.14856,-0.0983276,0.249573,0.951782
336698346895,-0.148621,-0.0983276,0.249573,0.951782
336698361946,-0.148621,-0.0983276,0.249573,0.951782
336698384392,-0.148621,-0.0983887,0.249573,0.951782
336698406939,-0.148621,-0.0983887,0.249573,0.951782
336698421876,-0.148682,-0.0983887,0.249573,0.951782
336698444479,-0.148682,-0.0983887,0.249573,0.951782
336698466948,-0.148682,-0.0984497,0.249573,0.951782
336698481893,-0.148682,-0.0984497,0.249573,0.951782
336698504431,-0.148682,-0.0984497,0.249573,0.951782
336698527272,-0.148682,-0.0984497,0.249573,0.951782
336698541947,-0.148682,-0.0984497,0.249573,0.951782
336698564475,-0.148682,-0.0984497,0.249573,0.951782
336698586924,-0.148682,-0.0984497,0.249573,0.951782
336698603351,-0.148682,-0.0984497,0.249573,0.951782
336698624398,-0.148682,-0.0984497,0.249573,0.951782
336698646891,-0.148682,-0.0984497,0.249573,0.951782
336698663304,-0.148743,-0.0984497,0.249573,0.951782
336698684430,-0.148743,-0.0984497,0.249573,0.951782
336698706917,-0.148743,-0.0984497,0.249573,0.951782
336698723386,-0.148743,-0.0985107,0.249573,0.951782
336698744439,-0.148743,-0.0984497,0.249573,0.951782
336698760284,-0.148743,-0.0984497,0.249573,0.951782
336698783405,-0.148743,-0.0984497,0.249573,0.951782
336698804464,-0.148743,-0.0985107,0.249573,0.951782
336698820213,-0.148804,-0.0985107,0.249573,0.951721
336698843363,-0.148804,-0.0985107,0.249573,0.951721
336698865844,-0.148804,-0.0985107,0.249573,0.951721
336698880492,-0.148804,-0.0985107,0.249573,0.951721
336698903390,-0.148804,-0.0985107,0.249573,0.951721
336698924459,-0.148804,-0.0985107,0.249573,0.951721
336698940195,-0.148804,-0.0985107,0.249573,0.951721
336698963413,-0.148865,-0.0985107,0.249573,0.951721
336698984437,-0.148865,-0.0985107,0.249573,0.951721
336699000181,-0.148865,-0.0985107,0.249573,0.951721
336699023400,-0.148865,-0.0985107,0.249573,0.951721
336699044470,-0.148865,-0.0985107,0.249573,0.951721
336699060218,-0.148865,-0.0985718,0.249573,0.951721
336699083363,-0.148865,-0.0985718,0.249573,0.951721
336699104439,-0.148865,-0.0985718,0.249573,0.951721
336699120185,-0.148865,-0.0985718,0.249573,0.951721
336699143328,-0.148865,-0.0985718,0.249573,0.951721
336699164472,-0.148926,-0.0986328,0.249573,0.951721
336699180227,-0.148926,-0.0986328,0.249573,0.951721
336699203399,-0.148926,-0.0985718,0.249573,0.951721
336699224516,-0.148926,-0.0985718,0.249573,0.951721
336699240207,-0.148926,-0.0985718,0.249573,0.951721
336699263414,-0.148926,-0.0986328,0.249573,0.951721
336699284451,-0.148926,-0.0986328,0.249573,0.951721
336699300265,-0.148926,-0.0986328,0.249573,0.951721
336699323420,-0.148926,-0.0986328,0.249573,0.951721
336699344520,-0.148926,-0.0986328,0.249573,0.951721
336699360213,-0.148926,-0.0986328,0.249573,0.951721
336699382706,-0.148926,-0.0986328,0.249573,0.951721
336699404455,-0.148926,-0.0986328,0.249573,0.951721
336699420205,-0.148926,-0.0986328,0.249573,0.951721
336699442691,-0.148926,-0.0986328,0.249573,0.951721
336699464411,-0.148926,-0.0986328,0.249573,0.951721
336699480212,-0.148926,-0.0986328,0.249573,0.951721
336699502764,-0.148926,-0.0986328,0.249573,0.951721
336699526351,-0.148987,-0.0986328,0.249573,0.951721
336699540255,-0.148987,-0.0986328,0.249573,0.951721
336699562733,-0.148987,-0.0986328,0.249573,0.951721
336699586097,-0.148987,-0.0986328,0.249573,0.951721
336699600300,-0.148987,-0.0986328,0.249573,0.951721
336699622714,-0.149048,-0.0986328,0.249573,0.951721
336699645935,-0.149048,-0.0986328,0.249573,0.951721
336699660457,-0.149048,-0.0986328,0.249573,0.95166
336699682874,-0.149048,-0.0986938,0.249573,0.95166
336699705917,-0.149109,-0.0986938,0.249573,0.95166
336699720225,-0.149048,-0.0986938,0.249573,0.95166
336699743621,-0.149048,-0.0986938,0.249573,0.95166
336699772463,-0.149048,-0.0986938,0.249573,0.95166
336699780284,-0.149048,-0.0986938,0.249573,0.95166
336699802771,-0.149109,-0.0986938,0.249573,0.95166
336699825943,-0.149109,-0.0986938,0.249573,0.95166
336699840322,-0.149109,-0.0986938,0.249573,0.95166
336699862751,-0.149109,-0.0986938,0.249573,0.95166
336699885886,-0.149109,-0.0986938,0.249573,0.95166
336699900309,-0.149109,-0.0986938,0.249573,0.95166
336699922806,-0.149109,-0.0986938,0.249573,0.95166
336699945969,-0.149109,-0.0986938,0.249573,0.95166
336699960273,-0.149109,-0.0986938,0.249573,0.95166
336699982800,-0.149109,-0.0986938,0.249573,0.95166
336700005871,-0.149109,-0.0987549,0.249573,0.95166
336700020302,-0.149109,-0.0986938,0.249573,0.95166
336700042848,-0.149109,-0.0987549,0.249573,0.95166
336700066019,-0.149109,-0.0987549,0.249573,0.95166
336700087034,-0.149109,-0.0987549,0.249573,0.95166
336700102783,-0.149048,-0.0986938,0.249573,0.95166
336700125916,-0.149597,-0.0991211,0.249695,0.951538
336700147014,-0.150818,-0.0998535,0.249695,0.951233
336700162853,-0.151794,-0.0998535,0.249817,0.95105
336700185960,-0.151733,-0.0987549,0.249695,0.951233
336700207025,-0.152039,-0.0963745,0.248962,0.951599
336700222812,-0.152771,-0.0932617,0.247925,0.952087
336700245978,-0.153503,-0.0894775,0.245911,0.95282
336700267025,-0.153625,-0.0844116,0.242371,0.954163
336700282776,-0.152893,-0.0776367,0.235962,0.956482
336700305261,-0.152344,-0.0698853,0.227905,0.959106
336700326947,-0.152222,-0.0617065,0.217346,0.962158
336700342833,-0.151978,-0.053833,0.2052,0.965332
336700365261,-0.152283,-0.046875,0.191162,0.968506
336700387089,-0.152283,-0.0412598,0.175476,0.971741
336700402836,-0.151367,-0.0375977,0.158142,0.974976
336700425257,-0.150391,-0.0352783,0.139404,0.978088
336700447061,-0.14978,-0.034729,0.119751,0.980774
336700462806,-0.149597,-0.0357666,0.0993652,0.983093
336700485316,-0.150208,-0.0384521,0.0786133,0.984741
336700508463,-0.1521,-0.0423584,0.0578003,0.985718
336700530928,-0.15387,-0.046936,0.0369263,0.986267
336700545292,-0.154358,-0.0523071,0.0163574,0.98645
336700568501,-0.155151,-0.0585327,-0.00396729,0.986145
336700582758,-0.15686,-0.0653076,-0.0238647,0.985168
336700605250,-0.158203,-0.0724487,-0.0432129,0.983765
336700628405,-0.159363,-0.0793457,-0.0620117,0.982056
336700649593,-0.160278,-0.0859985,-0.0803223,0.97998
336700665280,-0.161194,-0.0922241,-0.0982666,0.977661
336700688499,-0.162537,-0.0979004,-0.11554,0.974976
336700709564,-0.164673,-0.1026,-0.132202,0.972046
336700725253,-0.166565,-0.106506,-0.148376,0.968933
336700748471,-0.167847,-0.10968,-0.164062,0.96582
336700769553,-0.168213,-0.111267,-0.178467,0.963013
336700785284,-0.169861,-0.111816,-0.190002,0.960449
336700808499,-0.174805,-0.108398,-0.200439,0.957886
336700829552,-0.177063,-0.103271,-0.210388,0.955872
336700845313,-0.176575,-0.0980225,-0.220459,0.954224
336700868403,-0.176147,-0.0912476,-0.231018,0.952515
336700889463,-0.177002,-0.0826416,-0.241821,0.950439
336700905299,-0.177063,-0.0722046,-0.25293,0.948364
336700928548,-0.175598,-0.0604858,-0.263489,0.946594
336700949555,-0.173645,-0.0473633,-0.273254,0.944946
336700965283,-0.170959,-0.0328979,-0.281982,0.943481
336700988584,-0.167786,-0.0175171,-0.289307,0.942261
336701010957,-0.165405,-0.000671387,-0.294556,0.941223
336701025295,-0.162415,0.0175171,-0.297302,0.940674
336701048499,-0.159058,0.0372925,-0.297974,0.940491
336701069558,-0.154541,0.0577393,-0.296997,0.940491
336701085261,-0.147522,0.078186,-0.293579,0.941223
336701108508,-0.140015,0.0987549,-0.288025,0.942139
336701129548,-0.133362,0.120239,-0.280762,0.94281
336701145317,-0.125732,0.142212,-0.271973,0.943359
336701168518,-0.116028,0.163818,-0.261597,0.944031
336701196993,-0.105591,0.185181,-0.25,0.944458
336701205290,-0.0961304,0.206177,-0.237305,0.944397
336701228517,-0.0879517,0.226013,-0.22345,0.944031
336701241508,-0.0807495,0.244141,-0.208679,0.943542
336701264550,-0.0737915,0.260132,-0.193237,0.943115
336701278918,-0.0674438,0.274231,-0.177185,0.942749
336701310206,-0.0622559,0.286316,-0.160767,0.942444
336701324577,-0.0591431,0.296509,-0.144653,0.942139
336701339026,-0.0542603,0.305359,-0.128113,0.941956
336701361400,-0.0489502,0.312378,-0.110901,0.942139
336701384656,-0.0456543,0.318054,-0.0934448,0.942322
336701398854,-0.0441284,0.322144,-0.0756226,0.942566
336701421356,-0.0413208,0.323853,-0.0571899,0.94342
336701444563,-0.0385132,0.323486,-0.038147,0.944641
336701458868,-0.036377,0.321777,-0.019104,0.945862
336701481381,-0.0344238,0.317932,0.00012207,0.947449
336701504560,-0.0325317,0.311707,0.0194092,0.949402
336701518962,-0.03125,0.303894,0.0385132,0.951355
336701541447,-0.0305176,0.29425,0.0581055,0.95343
336701564562,-0.0300293,0.282166,0.0783691,0.955627
336701578912,-0.0291138,0.267883,0.098999,0.957886
336701601400,-0.0288696,0.252502,0.119141,0.959778
336701624641,-0.0279541,0.23645,0.137451,0.961426
336701648517,-0.0258789,0.220337,0.154175,0.962769
336701661393,-0.0256958,0.203003,0.170349,0.963867
336701684545,-0.0271606,0.183594,0.186951,0.964661
336701698870,-0.0294189,0.16333,0.203613,0.964844
336701721451,-0.0311279,0.143066,0.219788,0.964478
336701744575,-0.0335083,0.122192,0.235535,0.963562
336701758920,-0.0360107,0.101013,0.250122,0.962219
336701781397,-0.0374146,0.0808716,0.262939,0.960632
336701804540,-0.0392456,0.0608521,0.274414,0.958862
336701818906,-0.0411987,0.0402832,0.284729,0.956848
336701841367,-0.041687,0.0205078,0.294067,0.95459
336701864596,-0.0418701,0.00189209,0.302002,0.952332
336701878896,-0.0428467,-0.0162964,0.308472,0.950073
336701901416,-0.0430298,-0.032959,0.313171,0.94812
336701924567,-0.0424805,-0.0481567,0.316101,0.946533
336701938854,-0.0430908,-0.0620728,0.316956,0.945374
336701961387,-0.0436401,-0.0739136,0.315369,0.945068
336701984567,-0.0425415,-0.0831299,0.312012,0.945435
336701998917,-0.0437622,-0.0912476,0.307068,0.946228
336702021425,-0.0488281,-0.0983887,0.300903,0.947266
336702044532,-0.0544434,-0.103699,0.294067,0.948547
336702058907,-0.0593872,-0.107117,0.287048,0.950012
336702081437,-0.0639648,-0.109375,0.279968,0.951599
336702104604,-0.0687866,-0.111023,0.2724,0.953247
336702118941,-0.0731201,-0.111572,0.264648,0.955017
336702141379,-0.0785522,-0.111633,0.257385,0.956604
336702164630,-0.085083,-0.111389,0.251099,0.957703
336702178892,-0.0913696,-0.110901,0.246521,0.958374
336702201481,-0.0961914,-0.110229,0.243774,0.958679
336702224574,-0.100403,-0.109558,0.242676,0.958618
336702238980,-0.1026,-0.108948,0.242981,0.958374
336702261476,-0.104919,-0.108582,0.244507,0.957764
336702284688,-0.1073,-0.108398,0.247742,0.956726
336702298964,-0.108521,-0.108032,0.252563,0.955322
336702321451,-0.108887,-0.107666,0.258118,0.953857
336702344626,-0.109924,-0.1073,0.263367,0.952332
336702358982,-0.110901,-0.106689,0.268372,0.950928
336702381477,-0.111267,-0.106262,0.273193,0.949524
336702403887,-0.111755,-0.10614,0.277649,0.948242
336702418954,-0.112244,-0.106628,0.28125,0.947021
336702441464,-0.113098,-0.107239,0.283752,0.946106
336702463881,-0.114258,-0.107788,0.285217,0.945496
336702478940,-0.115479,-0.107788,0.286255,0.945007
336702501410,-0.117065,-0.1073,0.287048,0.944641
336702523911,-0.117981,-0.106812,0.28772,0.944336
336702538967,-0.118835,-0.106628,0.287964,0.944214
336702561444,-0.119873,-0.106812,0.287781,0.944092
336702583987,-0.120361,-0.107483,0.287781,0.94397
336702599005,-0.119995,-0.108521,0.287842,0.943909
336702621505,-0.119751,-0.109497,0.287781,0.943848
336702643917,-0.11969,-0.110291,0.287537,0.943787
336702658919,-0.119812,-0.11084,0.287537,0.943726
336702681483,-0.119751,-0.110962,0.287598,0.943665
336702704008,-0.11969,-0.11084,0.287415,0.943787
336702719010,-0.119629,-0.110718,0.286621,0.944031
336702741520,-0.119507,-0.11084,0.2854,0.944397
336702763989,-0.119934,-0.11145,0.284241,0.944641
336702779011,-0.120056,-0.112,0.283447,0.944763
336702801523,-0.120361,-0.11261,0.282471,0.945007
336702823980,-0.121338,-0.113281,0.281311,0.945129
336702838930,-0.122803,-0.113831,0.280518,0.945068
336702861693,-0.123657,-0.11438,0.280518,0.944946
336702883927,-0.12384,-0.115356,0.280396,0.944824
336702899021,-0.124146,-0.116333,0.279846,0.944824
336702921484,-0.124878,-0.116699,0.279175,0.944885
336702943976,-0.125916,-0.116516,0.278625,0.944946
336702958937,-0.126953,-0.115967,0.27832,0.944946
336702981519,-0.127747,-0.115723,0.278076,0.944946
336702997947,-0.12854,-0.115417,0.277893,0.944946
336703018924,-0.129089,-0.115112,0.277771,0.944946
336703041460,-0.129883,-0.114685,0.277893,0.944824
336703057988,-0.130798,-0.114502,0.278503,0.944519
336703079108,-0.131042,-0.114563,0.279724,0.944153
336703101551,-0.130676,-0.114014,0.281128,0.943848
336703117936,-0.129944,-0.113159,0.281982,0.943787
336703140440,-0.1297,-0.112549,0.282043,0.943909
336703161543,-0.129944,-0.112427,0.281555,0.94397
336703177886,-0.130005,-0.112305,0.28125,0.944092
336703200437,-0.129333,-0.112671,0.280945,0.944214
336703221547,-0.128479,-0.11322,0.279968,0.94458
336703237859,-0.12854,-0.113647,0.27771,0.94519
336703260371,-0.130615,-0.113647,0.275513,0.945557
336703281594,-0.132141,-0.113586,0.274841,0.945557
336703297979,-0.132385,-0.114014,0.274902,0.945435
336703320418,-0.132263,-0.115234,0.274475,0.945435
336703341505,-0.132263,-0.116089,0.273682,0.945557
336703364043,-0.132141,-0.116272,0.272827,0.945801
336703380482,-0.13269,-0.116333,0.271667,0.946045
336703401511,-0.13446,-0.116394,0.270691,0.946045
336703417876,-0.135742,-0.11615,0.270752,0.945923
336703440454,-0.136719,-0.115845,0.271301,0.945618
336703461483,-0.137695,-0.115295,0.2724,0.945251
336703477877,-0.137695,-0.114197,0.273865,0.944946
336703500374,-0.135986,-0.11261,0.275208,0.945007
336703521525,-0.135437,-0.112244,0.275391,0.945068
336703537931,-0.135559,-0.112427,0.275146,0.945129
336703560432,-0.13446,-0.112366,0.275146,0.945251
336703581701,-0.133728,-0.11261,0.274963,0.945374
336703597932,-0.132812,-0.113464,0.274048,0.945679
336703620367,-0.133545,-0.114502,0.272156,0.945984
336703641466,-0.134766,-0.114563,0.270935,0.946167
336703657872,-0.135742,-0.114868,0.271057,0.945984
336703680476,-0.135742,-0.116577,0.271545,0.945618
336703701728,-0.135498,-0.117798,0.271729,0.945435
336703718013,-0.135315,-0.117798,0.271362,0.945557
336703740415,-0.136353,-0.117188,0.270569,0.94574
336703761531,-0.137512,-0.116455,0.270081,0.945801
336703777909,-0.138245,-0.116028,0.27002,0.94574
336703806634,-0.139465,-0.115845,0.270508,0.945435
336703821645,-0.140442,-0.115173,0.271423,0.945129
336703844041,-0.140564,-0.11377,0.272644,0.944946
336703860390,-0.139893,-0.112671,0.273621,0.944885
336703881646,-0.139648,-0.112183,0.27417,0.944824
336703897939,-0.13916,-0.112122,0.274597,0.944763
336703920491,-0.137695,-0.112305,0.274719,0.944946
336703941648,-0.136658,-0.113586,0.274536,0.945007
336703957882,-0.135742,-0.114807,0.273376,0.945312
336703980522,-0.13678,-0.116028,0.271362,0.945618
336704003034,-0.138367,-0.116272,0.270813,0.945496
336704018004,-0.138489,-0.11676,0.271545,0.94519
336704040521,-0.138,-0.118103,0.272034,0.944946
336704061642,-0.137146,-0.118652,0.271667,0.945129
336704077932,-0.136963,-0.118591,0.270752,0.945435
336704100422,-0.138245,-0.118286,0.269897,0.945496
336704122948,-0.139465,-0.117859,0.269775,0.945435
336704137955,-0.140564,-0.117554,0.270203,0.94519
336704160462,-0.140991,-0.117126,0.270752,0.945007
336704182908,-0.141541,-0.116394,0.271118,0.944885
336704197932,-0.14209,-0.115601,0.27179,0.944763
336704220410,-0.141968,-0.114563,0.272949,0.944519
336704242978,-0.140869,-0.113586,0.273865,0.94458
336704258027,-0.140015,-0.113464,0.273804,0.944702
336704280403,-0.139587,-0.113953,0.273376,0.944824
336704302968,-0.138123,-0.114929,0.272705,0.945129
336704318655,-0.137695,-0.115906,0.27124,0.945496
336704339691,-0.139038,-0.116394,0.269775,0.945679
336704362274,-0.139771,-0.116699,0.269775,0.945496
336704378574,-0.139404,-0.118103,0.270203,0.945251
336704399750,-0.138916,-0.11969,0.270325,0.945129
336704422184,-0.138123,-0.120117,0.270142,0.945251
336704438616,-0.138123,-0.119934,0.26947,0.945435
336704459714,-0.139038,-0.119507,0.268494,0.945618
336704482241,-0.139832,-0.11908,0.267395,0.945923
336704498611,-0.140869,-0.118958,0.266418,0.946045
336704519655,-0.141724,-0.118591,0.265869,0.946106
336704542204,-0.142456,-0.117859,0.265686,0.946106
336704558656,-0.142395,-0.117493,0.265686,0.946167
336704579666,-0.142395,-0.117432,0.265503,0.946228
336704602219,-0.142334,-0.117737,0.265686,0.946167
336704618666,-0.142273,-0.117981,0.265381,0.946228
336704639763,-0.143372,-0.117188,0.264038,0.946533
336704662214,-0.144653,-0.114441,0.260437,0.947693
336704684801,-0.144043,-0.108948,0.253113,0.950378
336704699675,-0.141052,-0.100586,0.240417,0.955017
336704722260,-0.140381,-0.09021,0.222839,0.960449
336704745245,-0.142944,-0.0789795,0.201599,0.965759
336704759681,-0.145386,-0.0686646,0.17804,0.970764
336704782153,-0.146484,-0.0599365,0.152283,0.975525
336704806219,-0.145325,-0.0524902,0.125977,0.979919
336704819776,-0.139587,-0.0465698,0.0996704,0.98407
336704842266,-0.131592,-0.0426636,0.0727539,0.987671
336704864660,-0.122253,-0.0401611,0.0462646,0.990601
336704879738,-0.11145,-0.0402222,0.0217896,0.992676
336704902293,-0.0999756,-0.0435181,6.10352e-05,0.994019
336704924775,-0.088501,-0.0488281,-0.0201416,0.994629
336704939817,-0.0776367,-0.0563965,-0.0396118,0.994568
336704962266,-0.0666504,-0.0637817,-0.0582275,0.994019
336704984740,-0.0552368,-0.0704956,-0.0761108,0.993042
336704999690,-0.0452271,-0.0751343,-0.0938721,0.991699
336705022295,-0.0368652,-0.076416,-0.111877,0.990051
336705044762,-0.0305786,-0.0733032,-0.129211,0.988403
336705061177,-0.0280762,-0.0665894,-0.145142,0.986755
336705082203,-0.0275269,-0.0551147,-0.158691,0.985352
336705104709,-0.0255737,-0.0379639,-0.170044,0.984375
336705119858,-0.0238037,-0.0172729,-0.179016,0.983398
336705142262,-0.0219727,0.00537109,-0.185364,0.982361
336705158035,-0.0187378,0.0289307,-0.189514,0.981262
336705179788,-0.015564,0.0532227,-0.191833,0.979858
336705202272,-0.0119629,0.0779419,-0.19165,0.978271
336705217957,-0.00738525,0.102417,-0.188904,0.976562
336705241178,-0.00213623,0.126831,-0.183716,0.974731
336705262242,0.00305176,0.151245,-0.176636,0.972534
336705278075,0.00793457,0.17511,-0.167725,0.970093
336705301125,0.0122681,0.198486,-0.156616,0.967407
336705322251,0.0166626,0.22052,-0.143433,0.9646
336705338062,0.0218506,0.24054,-0.128662,0.961792
336705361097,0.0270386,0.257263,-0.112305,0.959351
336705382155,0.032959,0.269531,-0.093811,0.957825
336705397941,0.0401001,0.2771,-0.0739136,0.957092
336705421229,0.0471191,0.28125,-0.0539551,0.956909
336705442257,0.0533447,0.28241,-0.03479,0.957153
336705457964,0.0595093,0.280273,-0.0160522,0.957886
336705481165,0.0648193,0.274536,0.00219727,0.959351
336705502279,0.0682983,0.265808,0.0198975,0.961365
336705518027,0.0717773,0.253906,0.0366821,0.963806
336705541206,0.0749512,0.240479,0.0512085,0.96637
336705562300,0.0785522,0.226562,0.062561,0.96875
336705578072,0.0825806,0.210815,0.0714111,0.971375
336705601179,0.0861816,0.194031,0.0767822,0.974121
336705622299,0.0881348,0.176331,0.0786133,0.977173
336705638089,0.09021,0.15863,0.0775757,0.980103
336705661242,0.0923462,0.141968,0.072937,0.982788
336705682277,0.093689,0.125183,0.0646362,0.985535
336705698075,0.0930786,0.107361,0.0523071,0.988403
336705721128,0.0881348,0.0872192,0.0371094,0.991577
336705749817,0.0783691,0.0667725,0.0212402,0.994446
336705758005,0.0683594,0.0474854,0.00646973,0.99646
336705781164,0.0626831,0.0278931,-0.0065918,0.997559
336705802300,0.0584717,0.00762939,-0.0184937,0.998047
336705818100,0.0524292,-0.0123291,-0.0298462,0.998047
336705841252,0.0474243,-0.0307007,-0.0405884,0.997559
336705862274,0.0460815,-0.0494385,-0.0492554,0.99646
336705878082,0.0456543,-0.0687256,-0.055542,0.994995
336705901177,0.0427246,-0.0875854,-0.0601196,0.993408
336705922217,0.0376587,-0.10498,-0.0636597,0.991699
336705938060,0.0334473,-0.12085,-0.0643921,0.98999
336705961156,0.0309448,-0.135559,-0.0621338,0.988281
336705982275,0.0282593,-0.147766,-0.0569458,0.986938
336705998028,0.0264893,-0.15741,-0.0496826,0.985901
336706020563,0.0255127,-0.163391,-0.0413208,0.985352
336706042335,0.024231,-0.166565,-0.0325317,0.985168
336706066225,0.0222778,-0.168274,-0.0231934,0.985168
336706089446,0.0193481,-0.168701,-0.0131836,0.985352
336706102235,0.0165405,-0.167847,-0.00262451,0.985657
336706118040,0.0145874,-0.164978,0.00793457,0.986145
336706140547,0.0130005,-0.160278,0.0180664,0.986816
336706163690,0.0107422,-0.15387,0.0275269,0.98761
336706178051,0.00726318,-0.146179,0.0357666,0.988525
336706200592,0.00231934,-0.137207,0.0426636,0.989563
336706223659,-0.00213623,-0.127014,0.0484619,0.990662
336706238101,-0.00640869,-0.116089,0.053894,0.991699
336706260503,-0.00970459,-0.103882,0.0587158,0.992798
336706283683,-0.012146,-0.0892944,0.0623779,0.993958
336706304791,-0.0142212,-0.0733643,0.0639648,0.995117
336706320625,-0.0184937,-0.0552979,0.0637817,0.996216
336706343731,-0.0236206,-0.0350952,0.0620728,0.997131
336706364819,-0.0273438,-0.0124512,0.0578613,0.997864
336706380562,-0.0315552,0.0123291,0.0506592,0.998108
336706403720,-0.0377808,0.0389404,0.0405273,0.997681
336706424778,-0.0454712,0.0657349,0.0291748,0.996338
336706440585,-0.0518799,0.0935669,0.0169067,0.99408
336706471206,-0.0569458,0.121582,0.00335693,0.990906
336706486224,-0.0631104,0.149231,-0.0106812,0.986694
336706500507,-0.0675659,0.175293,-0.0238037,0.981873
336706523756,-0.069519,0.199524,-0.0354614,0.976746
336706544790,-0.0715332,0.222412,-0.0452881,0.971252
336706560526,-0.0734863,0.244019,-0.0528564,0.965515
336706583736,-0.0725098,0.264099,-0.0581665,0.959961
336706604763,-0.0686646,0.281982,-0.060791,0.954956
336706620580,-0.0646362,0.297119,-0.0609741,0.950684
336706643737,-0.0593262,0.310181,-0.0585938,0.94696
336706664845,-0.0523071,0.320801,-0.0532837,0.944153
336706680591,-0.0443726,0.328186,-0.0447998,0.942444
336706703736,-0.0362549,0.332153,-0.0336304,0.941895
336706724805,-0.02771,0.333069,-0.0203247,0.942261
336706740559,-0.0189819,0.330872,-0.00604248,0.94342
336706763710,-0.00994873,0.326233,0.00878906,0.945129
336706784828,-0.000793457,0.319702,0.0234985,0.947205
336706800621,0.00695801,0.310547,0.0379028,0.949707
336706823682,0.0142212,0.299438,0.052124,0.952576
336706844868,0.0196533,0.287109,0.0655518,0.955383
336706860498,0.0221558,0.273865,0.0773926,0.958374
336706883738,0.022644,0.260986,0.0869141,0.961121
336706904804,0.0227661,0.246399,0.0947876,0.964233
336706920618,0.0184937,0.230774,0.101196,0.967529
336706943114,0.0110474,0.213867,0.10675,0.970886
336706964850,0.00292969,0.195679,0.11261,0.974121
336706980612,-0.00689697,0.177002,0.11908,0.976929
336707003082,-0.0192261,0.15863,0.126038,0.979065
336707024890,-0.0314331,0.140015,0.134094,0.980469
336707040577,-0.0437622,0.121094,0.143188,0.981262
336707063077,-0.0567017,0.101318,0.153198,0.981323
336707084824,-0.0687866,0.081543,0.163147,0.980774
336707101094,-0.0780029,0.062439,0.173462,0.979736
336707123037,-0.0856934,0.0436401,0.185791,0.977844
336707146187,-0.0924072,0.024353,0.200745,0.974915
336707160515,-0.0986938,0.00445557,0.217224,0.971069
336707183147,-0.104187,-0.0148926,0.233459,0.966614
336707206203,-0.107483,-0.0315552,0.247864,0.96228
336707220629,-0.109863,-0.0460815,0.259827,0.958252
336707243094,-0.111145,-0.059082,0.269653,0.954651
336707266276,-0.110657,-0.0708008,0.2771,0.951782
336707287317,-0.111389,-0.0802612,0.282104,0.949463
336707303136,-0.113098,-0.0875244,0.285278,0.947693
336707326279,-0.115112,-0.093689,0.286987,0.94635
336707347341,-0.11792,-0.0994263,0.287292,0.945312
336707363102,-0.120911,-0.104126,0.287598,0.944336
336707386295,-0.122314,-0.107178,0.288635,0.943481
336707407070,-0.121521,-0.110657,0.289124,0.943054
336707423090,-0.121521,-0.113892,0.288269,0.942932
336707436717,-0.120239,-0.115723,0.28656,0.943359
336707459195,-0.120178,-0.116455,0.28479,0.943848
336707474160,-0.121704,-0.116394,0.282654,0.944275
336707496666,-0.123352,-0.115417,0.280518,0.944824
336707519146,-0.127136,-0.115173,0.278992,0.944824
336707542406,-0.132568,-0.116821,0.279053,0.943848
336707556644,-0.134888,-0.118958,0.280762,0.942749
336707579159,-0.135071,-0.119873,0.282837,0.941956
336707602324,-0.135376,-0.119873,0.284058,0.941589
336707616690,-0.136658,-0.119873,0.284973,0.941101
336707639875,-0.136536,-0.119446,0.286438,0.940735
336707654171,-0.136169,-0.119019,0.288086,0.940369
336707676738,-0.135376,-0.118469,0.289612,0.940063
336707699846,-0.133606,-0.117737,0.290405,0.940125
336707714174,-0.132141,-0.117065,0.290283,0.940491
336707736689,-0.131836,-0.117004,0.289124,0.940857
336707759872,-0.131531,-0.117249,0.287415,0.941406
336707774208,-0.131348,-0.118408,0.285706,0.941833
336707796695,-0.132629,-0.120178,0.284119,0.941895
336707819887,-0.134399,-0.12085,0.282959,0.941895
336707834118,-0.13739,-0.120422,0.282471,0.941711
336707856637,-0.140808,-0.120239,0.283264,0.940979
336707879943,-0.143127,-0.121033,0.284912,0.940002
336707894171,-0.142517,-0.122314,0.286133,0.939575
336707916725,-0.142334,-0.122864,0.286377,0.939453
336707939812,-0.142334,-0.122803,0.286499,0.939453
336707954428,-0.141663,-0.122559,0.287537,0.939209
336707976723,-0.140625,-0.122009,0.289246,0.938904
336707999806,-0.138123,-0.121033,0.290833,0.938965
336708022531,-0.133972,-0.119446,0.29187,0.939453
336708036761,-0.128723,-0.119263,0.29071,0.940552
336708059204,-0.126343,-0.121094,0.287964,0.941467
336708082435,-0.127258,-0.124146,0.285767,0.94165
336708096797,-0.129211,-0.125793,0.285706,0.941162
336708119229,-0.131104,-0.12616,0.287109,0.94043
336708134147,-0.132141,-0.126099,0.289001,0.939697
336708156640,-0.132629,-0.126953,0.29071,0.939026
336708179198,-0.131775,-0.128723,0.291626,0.938599
336708194188,-0.131348,-0.129578,0.291748,0.938477
336708216736,-0.131104,-0.128662,0.29187,0.938599
336708239171,-0.13092,-0.12738,0.292114,0.938721
336708254273,-0.130798,-0.126709,0.291992,0.938904
336708276675,-0.131226,-0.126343,0.291809,0.938904
336708299220,-0.131409,-0.125488,0.291687,0.939087
336708314312,-0.131042,-0.12439,0.291931,0.939209
336708336722,-0.130005,-0.123901,0.292358,0.93927
336708359261,-0.128479,-0.124634,0.292603,0.93927
336708374153,-0.127869,-0.125549,0.293335,0.939026
336708396689,-0.127747,-0.126587,0.294434,0.938599
336708419407,-0.126831,-0.127625,0.29541,0.938232
336708434210,-0.126221,-0.128174,0.295227,0.938293
336708456685,-0.125977,-0.128479,0.294189,0.938599
336708479220,-0.12677,-0.128967,0.292847,0.938843
336708494221,-0.128784,-0.129639,0.29187,0.938782
336708516748,-0.130615,-0.129883,0.291809,0.938538
336708539247,-0.131104,-0.129639,0.292114,0.938416
336708554202,-0.130615,-0.129333,0.292358,0.938416
336708576651,-0.13031,-0.129333,0.29248,0.938416
336708599230,-0.130066,-0.129028,0.292603,0.938477
336708614139,-0.130188,-0.128662,0.292847,0.938477
336708636788,-0.130859,-0.128235,0.292847,0.938416
336708659249,-0.131775,-0.127441,0.293152,0.938293
336708674214,-0.131653,-0.126587,0.29364,0.938293
336708696717,-0.130676,-0.12616,0.293762,0.938416
336708719260,-0.130554,-0.12677,0.293457,0.938477
336708734230,-0.130432,-0.127686,0.293518,0.938354
336708756760,-0.130798,-0.127991,0.293823,0.938171
336708779262,-0.13092,-0.127747,0.293823,0.938171
336708795625,-0.131287,-0.127197,0.293762,0.938232
336708816788,-0.131165,-0.126953,0.293518,0.938354
336708839177,-0.130859,-0.127014,0.29303,0.938538
336708855671,-0.130798,-0.126892,0.292297,0.938782
336708876771,-0.130981,-0.126343,0.291687,0.939026
336708899223,-0.131409,-0.125854,0.291504,0.939087
336708915611,-0.131653,-0.12561,0.291565,0.939087
336708936763,-0.131226,-0.125183,0.291565,0.939148
336708959154,-0.131226,-0.125244,0.291565,0.939148
336708975690,-0.131836,-0.124939,0.292053,0.938965
336708996747,-0.131531,-0.123779,0.293274,0.938782
336709019268,-0.131287,-0.122803,0.294495,0.938538
336709035733,-0.130249,-0.120544,0.294556,0.938965
336709056760,-0.129456,-0.116394,0.293335,0.940002
336709079248,-0.129578,-0.112549,0.291565,0.940979
336709095661,-0.130188,-0.109619,0.288696,0.942139
336709116801,-0.13147,-0.107056,0.284485,0.943542
336709139248,-0.134155,-0.104919,0.279968,0.944763
336709155700,-0.136353,-0.102478,0.275574,0.945984
336709176756,-0.137939,-0.0997925,0.271606,0.947205
336709199227,-0.139343,-0.0971069,0.267212,0.948547
336709215630,-0.140625,-0.0944214,0.262939,0.949829
336709236752,-0.142029,-0.092041,0.259644,0.950745
336709259265,-0.142761,-0.090332,0.257568,0.951355
336709275799,-0.142822,-0.0883789,0.255737,0.952026
336709296730,-0.143127,-0.0860596,0.253906,0.952637
336709319311,-0.142883,-0.0836182,0.25177,0.953491
336709335658,-0.1427,-0.0820312,0.249756,0.954163
336709356788,-0.143005,-0.0819092,0.248108,0.95459
336709379324,-0.143066,-0.0818481,0.246643,0.954956
336709395693,-0.143494,-0.0812378,0.245483,0.955261
336709416737,-0.143677,-0.0807495,0.244995,0.955383
336709439247,-0.143555,-0.0801392,0.244568,0.955566
336709455685,-0.143677,-0.0794678,0.244263,0.955688
336709476670,-0.143005,-0.0794678,0.244141,0.955811
336709499274,-0.1427,-0.0794067,0.244568,0.95575
336709515626,-0.142517,-0.079895,0.245361,0.955566
336709536750,-0.142151,-0.0809937,0.245911,0.955383
336709559298,-0.141968,-0.0827026,0.245728,0.955261
336709575681,-0.142395,-0.0840454,0.245178,0.955261
336709596762,-0.142822,-0.0847778,0.244568,0.955261
336709619312,-0.143066,-0.0848999,0.243958,0.955383
336709635663,-0.143677,-0.0846558,0.243652,0.955383
336709656731,-0.144043,-0.0845337,0.243652,0.955322
336709679273,-0.144104,-0.0844727,0.243652,0.955322
336709695723,-0.14386,-0.0843506,0.243774,0.955322
336709716704,-0.143677,-0.0839844,0.243896,0.955383
336709739294,-0.143372,-0.0838013,0.244019,0.955444
336709763158,-0.143311,-0.0838623,0.244019,0.955444
336709778226,-0.143311,-0.0838623,0.244019,0.955444
336709800725,-0.143311,-0.0838623,0.244019,0.955444
336709815676,-0.143372,-0.0838623,0.244019,0.955383
336709838174,-0.143005,-0.0836792,0.24408,0.955444
336709859249,-0.142944,-0.0836792,0.24408,0.955505
336709875654,-0.142944,-0.0838013,0.243896,0.955505
336709898128,-0.142944,-0.0838623,0.243896,0.955505
336709919335,-0.142944,-0.0838013,0.243896,0.955505
336709935717,-0.142944,-0.0838013,0.243896,0.955505
336709958218,-0.142944,-0.0838013,0.243896,0.955505
336709979274,-0.142883,-0.0838013,0.243896,0.955505
336709995760,-0.142944,-0.0838013,0.243896,0.955505
336710018220,-0.142944,-0.0838013,0.243896,0.955505
336710039263,-0.142578,-0.0834961,0.244019,0.955566
336710055710,-0.142334,-0.083252,0.243958,0.955627
336710078189,-0.142334,-0.0830078,0.243774,0.955688
336710099255,-0.142151,-0.0828857,0.243713,0.95575
336710115751,-0.142151,-0.0828857,0.243774,0.95575
336710138181,-0.14209,-0.0831299,0.243713,0.95575
336710159236,-0.142151,-0.0834351,0.243652,0.95575
336710175681,-0.14209,-0.0834351,0.243652,0.95575
336710198222,-0.142151,-0.0834351,0.243652,0.95575
336710219242,-0.14209,-0.0834351,0.243652,0.95575
336710235683,-0.142212,-0.0837402,0.243591,0.955688
336710258262,-0.142212,-0.0837402,0.243591,0.955688
336710279365,-0.14209,-0.083374,0.243713,0.955688
336710295769,-0.141968,-0.0831299,0.243713,0.95575
336710318222,-0.141907,-0.0831299,0.243713,0.95575
336710339206,-0.141907,-0.0831299,0.243713,0.95575
336710355775,-0.14209,-0.083374,0.243652,0.95575
336710378233,-0.142151,-0.083374,0.243652,0.95575
336710399309,-0.141907,-0.0830078,0.243591,0.955811
336710415752,-0.141907,-0.0827026,0.24353,0.955872
336710438272,-0.141846,-0.0827026,0.24353,0.955872
336710459280,-0.142029,-0.0830078,0.243469,0.955811
336710475747,-0.142395,-0.083374,0.24353,0.955688
336710498200,-0.142395,-0.083313,0.24353,0.955688
336710519292,-0.142334,-0.0830078,0.243469,0.955811
336710535727,-0.142273,-0.0828247,0.243286,0.955872
336710557431,-0.142151,-0.0822144,0.243042,0.955994
336710579967,-0.142029,-0.0814209,0.243103,0.956055
336710595062,-0.142029,-0.0811157,0.243103,0.956055
336710617440,-0.141968,-0.0811157,0.243103,0.956055
336710640036,-0.142151,-0.0820923,0.24292,0.955994
336710654962,-0.142639,-0.0827026,0.242798,0.955933
336710677508,-0.143005,-0.0831299,0.242615,0.955872
336710699939,-0.143433,-0.0831909,0.242432,0.955872
336710715057,-0.143921,-0.0830688,0.242371,0.955811
336710738100,-0.143677,-0.0828247,0.242371,0.955872
336710759898,-0.143677,-0.0827637,0.242371,0.955872
336710776441,-0.143372,-0.0828247,0.242615,0.955872
336710797515,-0.143372,-0.0828247,0.242615,0.955872
336710819985,-0.143372,-0.0828857,0.242615,0.955872
336710835058,-0.143066,-0.0825195,0.242493,0.955933
336710857454,-0.142883,-0.0821533,0.242432,0.956055
336710879975,-0.142578,-0.081665,0.242493,0.956116
336710894981,-0.142273,-0.0813599,0.242737,0.956116
336710917486,-0.141846,-0.0812988,0.243164,0.956055
336710940011,-0.141296,-0.0819092,0.243103,0.956116
336710956479,-0.141357,-0.083313,0.24292,0.956055
336710977470,-0.141724,-0.0845337,0.242615,0.955933
336710999981,-0.142151,-0.0848999,0.24231,0.955933
336711016446,-0.142517,-0.0845947,0.242188,0.955933
336711037483,-0.142578,-0.0845337,0.242249,0.955933
336711059885,-0.142456,-0.0842285,0.242554,0.955872
336711076376,-0.142395,-0.0841064,0.242798,0.955872
336711097517,-0.142029,-0.0841064,0.24292,0.955872
336711119998,-0.141968,-0.0841675,0.24292,0.955872
336711136406,-0.141968,-0.0841675,0.24292,0.955872
336711157476,-0.141968,-0.0841675,0.24292,0.955872
336711180023,-0.141968,-0.0841675,0.24292,0.955872
336711203939,-0.142029,-0.0841675,0.24292,0.955872
336711217517,-0.142029,-0.0841675,0.24292,0.955872
336711239999,-0.142029,-0.0841675,0.24292,0.955872
336711256435,-0.142151,-0.0843506,0.242798,0.955872
336711277410,-0.142212,-0.0843506,0.242798,0.955872
336711300015,-0.142151,-0.0843506,0.242798,0.955872
336711316397,-0.142212,-0.0843506,0.242798,0.955872
336711337672,-0.142151,-0.0843506,0.242798,0.955872
336711360018,-0.142334,-0.0845947,0.242554,0.955872
336711376388,-0.142456,-0.0848999,0.242371,0.955872
336711397542,-0.142944,-0.0852051,0.242188,0.955811
336711419983,-0.143127,-0.0855713,0.241882,0.955811
336711436461,-0.143677,-0.0860596,0.241333,0.955872
336711457494,-0.143921,-0.0863037,0.240662,0.955933
336711480097,-0.143799,-0.0861816,0.240112,0.956116
336711496439,-0.142883,-0.0852051,0.239258,0.956543
336711517519,-0.141724,-0.0830078,0.236633,0.957581
336711540017,-0.141724,-0.0799561,0.230835,0.959229
336711556447,-0.14325,-0.0769043,0.222473,0.961243
336711578952,-0.144226,-0.0728149,0.212463,0.963684
336711600016,-0.142212,-0.0668335,0.197815,0.967529
336711616411,-0.141052,-0.0560303,0.177673,0.97229
336711637435,-0.143677,-0.0437012,0.152771,0.976746
336711659888,-0.148865,-0.0308228,0.124512,0.980469
336711675730,-0.154053,-0.0181274,0.0947876,0.983337
336711697468,-0.158447,-0.0067749,0.0658569,0.985107
336711720049,-0.162231,0.000732422,0.0391846,0.985962
336711735787,-0.165527,0.0010376,0.0181885,0.986023
336711757477,-0.163208,-0.00518799,0.00640869,0.986511
336711780024,-0.157532,-0.0245972,0.00335693,0.987183
336711795783,-0.145264,-0.0561523,0.0067749,0.987732
336711817538,-0.123352,-0.0926514,0.0125732,0.987915
336711840022,-0.093689,-0.131653,0.0175781,0.986694
336711862452,-0.0571289,-0.167358,0.0234375,0.983948
336711878935,-0.0206909,-0.192749,0.0267944,0.980652
336711900054,0.0123901,-0.206726,0.026001,0.977966
336711915757,0.036499,-0.210938,0.0169678,0.976624
336711938906,0.0408325,-0.213074,-0.00158691,0.976135
336711959960,0.0245972,-0.213623,-0.0230103,0.976318
336711975810,0.00262451,-0.207825,-0.0460205,0.977051
336712006448,-0.010437,-0.1922,-0.0692139,0.978821
336712019950,-0.0169678,-0.168457,-0.0911255,0.981323
336712035781,-0.0287476,-0.137817,-0.112671,0.983582
336712058961,-0.0508423,-0.101746,-0.131653,0.984741
336712087472,-0.0751953,-0.0600586,-0.146545,0.984497
336712095785,-0.0959473,-0.0153809,-0.155457,0.983032
336712118974,-0.108276,0.0290527,-0.157349,0.98114
336712147482,-0.109863,0.0690918,-0.152344,0.979736
336712155766,-0.105042,0.105225,-0.142761,0.978516
336712178986,-0.0953369,0.136902,-0.128967,0.977478
336712200030,-0.0809326,0.163818,-0.110535,0.976929
336712215774,-0.0635376,0.183289,-0.0874023,0.977051
336712238754,-0.0446167,0.195068,-0.0601196,0.977905
336712259983,-0.024231,0.199219,-0.0296631,0.979187
336712275774,-0.0020752,0.196533,0.00146484,0.980469
336712298976,0.0198975,0.188477,0.0321655,0.981323
336712320064,0.0404663,0.176331,0.0611572,0.981567
336712335832,0.0581665,0.160095,0.0882568,0.981384
336712366266,0.0740967,0.141113,0.111816,0.980835
336712382909,0.088501,0.12384,0.129211,0.979797
336712395804,0.10199,0.109863,0.138916,0.978882
336712426500,0.11499,0.103149,0.139709,0.978027
336712440097,0.119446,0.101196,0.133179,0.978577
336712455793,0.110596,0.10321,0.119202,0.981262
336712478908,0.09198,0.10968,0.0982666,0.984802
336712500010,0.0682373,0.120178,0.071106,0.987793
336712515725,0.0419312,0.132568,0.0388794,0.989502
336712539024,0.0126343,0.144592,0.00421143,0.98938
336712561403,-0.0175171,0.155029,-0.0307007,0.987244
336712575783,-0.0470581,0.162109,-0.0629272,0.983582
336712598970,-0.074585,0.164795,-0.0910034,0.979248
336712620026,-0.0982666,0.163086,-0.114624,0.974976
336712635831,-0.11676,0.154541,-0.133057,0.971985
336712658311,-0.129395,0.138245,-0.144958,0.97113
336712680138,-0.137573,0.114441,-0.151367,0.972107
336712695773,-0.139832,0.085022,-0.153198,0.974548
336712718311,-0.131653,0.0497437,-0.150146,0.978577
336712739988,-0.116028,0.0139771,-0.143005,0.982788
336712763910,-0.0985718,-0.0195312,-0.132751,0.986023
336712778350,-0.0802612,-0.0497437,-0.119202,0.988342
336712800026,-0.0633545,-0.0774536,-0.102783,0.989624
336712815816,-0.0444946,-0.103882,-0.0847778,0.989929
336712838335,-0.0249634,-0.127258,-0.067688,0.989197
336712861499,-0.00708008,-0.145935,-0.0521851,0.987854
336712875872,0.0112915,-0.160889,-0.0380859,0.986145
336712898307,0.02771,-0.172546,-0.0252075,0.984253
336712921460,0.0453491,-0.183228,-0.0143433,0.981873
336712935825,0.0632935,-0.192505,-0.0078125,0.979187
336712958365,0.0752563,-0.203369,-0.00488281,0.976135
336712987563,0.085144,-0.21698,-0.00396729,0.972412
336713004038,0.0982666,-0.230591,-0.00378418,0.968079
336713018366,0.114624,-0.240784,-0.0043335,0.963745
336713041526,0.128967,-0.247498,-0.00567627,0.960205
336713062623,0.141052,-0.250366,-0.00750732,0.957764
336713078405,0.150879,-0.248535,-0.010437,0.956726
336713101563,0.158142,-0.240601,-0.0162964,0.957458
336713122613,0.161438,-0.225708,-0.0255737,0.960327
336713138409,0.158691,-0.201721,-0.0387573,0.965698
336713161567,0.14978,-0.17157,-0.0541382,0.972168
336713182618,0.133423,-0.135071,-0.071167,0.979187
336713198314,0.113953,-0.0910034,-0.0889282,0.985291
336713221571,0.0929565,-0.0418091,-0.10614,0.989075
336713242610,0.0695801,0.0100708,-0.119324,0.990356
336713258334,0.0470581,0.0617676,-0.127136,0.988831
336713281571,0.0308838,0.111084,-0.130493,0.98468
336713302626,0.020874,0.155273,-0.130859,0.978882
336713318321,0.0151978,0.193176,-0.127441,0.972717
336713341597,0.0109863,0.22406,-0.119385,0.967163
336713362583,0.0101929,0.248779,-0.108276,0.962402
336713378361,0.0115967,0.26825,-0.0968018,0.958374
336713402152,0.00994873,0.283875,-0.085083,0.955017
336713422539,0.00964355,0.299072,-0.0705566,0.951538
336713438352,0.0139771,0.314087,-0.0523071,0.947815
336713461967,0.0189819,0.327148,-0.0313721,0.944214
336713482610,0.0231934,0.337219,-0.00708008,0.94104
336713498366,0.0299072,0.341187,0.0212402,0.93927
336713521592,0.0330811,0.336609,0.0526123,0.939514
336713542630,0.0336304,0.324036,0.0859985,0.941467
336713558343,0.0357056,0.303589,0.119934,0.944519
336713580837,0.0380859,0.277832,0.15094,0.947876
336713603979,0.0427246,0.25061,0.177002,0.950745
336713618386,0.0496826,0.221313,0.199951,0.953125
336713640871,0.0577393,0.19104,0.21936,0.954956
336713662617,0.0651855,0.162903,0.234802,0.956055
336713677582,0.0741577,0.137756,0.246948,0.956299
336713691965,0.0849609,0.117798,0.255371,0.955811
336713714453,0.0956421,0.102295,0.259705,0.955444
336713737685,0.104614,0.0914917,0.259216,0.95575
336713751953,0.113586,0.0852051,0.25354,0.956787
336713774434,0.123047,0.0809326,0.242371,0.958862
336713797572,0.131714,0.0789795,0.22522,0.962097
336713811937,0.136719,0.078125,0.201904,0.966614
336713834438,0.139771,0.0762939,0.174438,0.97168
336713857620,0.139465,0.0715942,0.145081,0.976868
336713871926,0.134521,0.064209,0.114868,0.982117
336713894424,0.126099,0.0558472,0.0844116,0.986816
336713917623,0.115845,0.0458374,0.0527344,0.990784
336713931962,0.104431,0.0354004,0.0195312,0.993652
336713954455,0.0932007,0.0237427,-0.0130615,0.995239
336713977637,0.0826416,0.00836182,-0.0440674,0.995544
336713992031,0.072876,-0.00927734,-0.074585,0.994507
336714014436,0.059082,-0.0252686,-0.105957,0.992249
336714037627,0.0388184,-0.0372314,-0.136536,0.989136
336714051989,0.0164185,-0.0477905,-0.163818,0.985168
336714075948,-0.00384521,-0.0601807,-0.189087,0.980103
336714097596,-0.0230103,-0.0755005,-0.212585,0.973938
336714111889,-0.0388794,-0.0897827,-0.233887,0.967285
336714134410,-0.0523071,-0.104675,-0.250061,0.961121
336714157643,-0.057373,-0.119629,-0.259521,0.956543
336714171926,-0.055481,-0.133789,-0.263245,0.953796
336714194451,-0.0522461,-0.144165,-0.263123,0.952454
336714217542,-0.0485229,-0.151184,-0.258789,0.952759
336714231974,-0.0421143,-0.158081,-0.248474,0.954712
336714254509,-0.0271606,-0.168762,-0.232239,0.95752
336714277613,-0.00518799,-0.179199,-0.212158,0.960632
336714291951,0.0205688,-0.188721,-0.188599,0.963501
336714314441,0.046875,-0.197754,-0.161743,0.965637
336714337612,0.0731201,-0.206665,-0.131775,0.966736
336714352028,0.0993652,-0.214294,-0.0998535,0.966553
336714374482,0.12323,-0.218872,-0.0689087,0.965454
336714397629,0.1427,-0.220642,-0.039917,0.963989
336714412002,0.156738,-0.221924,-0.0126343,0.96228
336714434385,0.167175,-0.224548,0.0144653,0.9599
336714458077,0.177917,-0.227661,0.0403442,0.956482
336714471956,0.18927,-0.230835,0.0637817,0.952271
336714494458,0.199219,-0.237488,0.0831299,0.947083
336714517654,0.207764,-0.245605,0.0945435,0.942078
336714531882,0.212585,-0.253784,0.0994263,0.938354
336714554505,0.216736,-0.260315,0.0987549,0.935669
336714577601,0.224548,-0.265747,0.09198,0.932983
336714591950,0.228027,-0.272278,0.0785522,0.931458
336714614491,0.225403,-0.279175,0.0593872,0.931458
336714637625,0.219788,-0.286377,0.0361328,0.931824
336714651974,0.216614,-0.291626,0.0108643,0.93158
336714674475,0.213989,-0.294739,-0.0149536,0.931152
336714696956,0.207458,-0.296143,-0.0418091,0.931396
336714711920,0.194824,-0.29541,-0.0705566,0.932617
336714734451,0.176392,-0.291016,-0.0999756,0.934937
336714756968,0.153992,-0.282104,-0.128906,0.93811
336714771926,0.129456,-0.268555,-0.154785,0.941895
336714794493,0.106567,-0.250549,-0.176025,0.945984
336714816964,0.0864258,-0.229004,-0.193787,0.950012
336714831954,0.0653687,-0.203064,-0.208374,0.954468
336714854460,0.0418091,-0.173218,-0.218994,0.95929
336714876994,0.0200195,-0.140625,-0.224304,0.964111
336714891988,0.0045166,-0.107544,-0.224731,0.968445
336714914515,-0.0067749,-0.0731201,-0.22229,0.972168
336714937033,-0.0169678,-0.0376587,-0.216797,0.975342
336714951944,-0.0229492,-0.00402832,-0.20697,0.978027
336714974528,-0.0213623,0.0256958,-0.192932,0.980591
336714996933,-0.0139771,0.0524902,-0.177612,0.982544
336715011980,-0.00177002,0.076355,-0.161377,0.983887
336715034507,0.0135498,0.0957642,-0.143127,0.984924
336715057003,0.0301514,0.109863,-0.122681,0.98584
336715071977,0.0458374,0.119202,-0.10022,0.986694
336715094479,0.0612793,0.123901,-0.0765991,0.987427
336715116952,0.0751953,0.124817,-0.052063,0.987915
336715131930,0.0888062,0.120972,-0.0258179,0.988281
336715154436,0.100708,0.111145,0.00201416,0.988647
336715176937,0.10968,0.0969238,0.0307617,0.988708
336715191928,0.116516,0.0793457,0.0602417,0.988159
336715214440,0.122864,0.0582886,0.0897217,0.986572
336715236963,0.126892,0.0351562,0.118042,0.984192
336715252613,0.129456,0.0114136,0.144836,0.980835
336715274500,0.130493,-0.0147705,0.171143,0.97644
336715296934,0.128052,-0.0407715,0.19574,0.971375
336715311919,0.122253,-0.0649414,0.21759,0.966125
336715334464,0.113708,-0.0853271,0.236633,0.961121
336715356961,0.104248,-0.102539,0.253357,0.956238
336715372004,0.0946655,-0.117249,0.268616,0.951355
336715394478,0.0841675,-0.128113,0.281555,0.947205
336715416935,0.0736694,-0.134888,0.292236,0.943848
336715431944,0.0630493,-0.138855,0.301025,0.941284
336715454459,0.053833,-0.140869,0.308167,0.93927
336715476991,0.0448608,-0.141602,0.314087,0.937683
336715493408,0.0367432,-0.141052,0.318848,0.936462
336715514441,0.0303345,-0.139587,0.32251,0.935669
336715536972,0.0258179,-0.138367,0.324951,0.935181
336715553428,0.0220337,-0.138184,0.326538,0.934753
336715574487,0.0189209,-0.138306,0.327637,0.934387
336715596987,0.0168457,-0.137817,0.328308,0.934265
336715613368,0.0160522,-0.136841,0.328674,0.934326
336715634456,0.0152588,-0.136719,0.328247,0.934509
336715656959,0.0136108,-0.138184,0.327026,0.934692
336715673396,0.0108643,-0.139893,0.325562,0.934998
336715694460,0.00860596,-0.141296,0.323853,0.935425
336715716944,0.00628662,-0.142395,0.321655,0.936035
336715733420,0.00305176,-0.143311,0.319397,0.936707
336715754473,6.10352e-05,-0.143555,0.317749,0.937195
336715777042,-0.00170898,-0.142334,0.3172,0.937561
336715793427,-0.00286865,-0.141907,0.31665,0.937805
336715814539,-0.0057373,-0.144043,0.315674,0.937805
336715837050,-0.00836182,-0.146423,0.315125,0.937622
336715853406,-0.00897217,-0.147095,0.315308,0.937439
336715874619,-0.00842285,-0.146912,0.315918,0.937256
336715897027,-0.00958252,-0.147156,0.31604,0.937195
336715913652,-0.0113525,-0.147339,0.315796,0.937195
336715934489,-0.0115967,-0.147278,0.315796,0.937195
336715957144,-0.0111084,-0.147522,0.315735,0.937195
336715973437,-0.0114136,-0.147827,0.315613,0.937195
336715994487,-0.0114746,-0.148804,0.315613,0.937012
336716017003,-0.0108643,-0.149719,0.315796,0.936829
336716033419,-0.0109253,-0.150574,0.316223,0.936584
336716054484,-0.010437,-0.150452,0.316589,0.936462
336716070936,-0.010376,-0.150452,0.316589,0.936462
336716093443,-0.0115967,-0.151489,0.316223,0.936401
336716114559,-0.0126343,-0.152222,0.316101,0.93634
336716130948,-0.0143433,-0.151428,0.316101,0.936401
336716153440,-0.0166016,-0.149475,0.316162,0.936646
336716174606,-0.019165,-0.147217,0.316833,0.936768
336716190935,-0.0215454,-0.145142,0.317627,0.936768
336716213431,-0.0229492,-0.143311,0.318237,0.936768
336716234489,-0.0241699,-0.141785,0.318481,0.93689
336716250967,-0.0238647,-0.141113,0.31842,0.937073
336716273486,-0.0229492,-0.141602,0.317932,0.937134
336716294531,-0.0230713,-0.14325,0.317017,0.937195
336716310996,-0.0231934,-0.144592,0.31604,0.937317
336716333436,-0.0233765,-0.145264,0.314392,0.937805
336716354573,-0.0250244,-0.145874,0.312317,0.938354
336716370901,-0.027771,-0.146118,0.310364,0.938843
336716393441,-0.0305176,-0.146118,0.30896,0.93927
336716416023,-0.0334473,-0.146118,0.308044,0.939453
336716430910,-0.0356445,-0.14563,0.307678,0.939575
336716453512,-0.0370483,-0.144287,0.307617,0.939758
336716475992,-0.0383301,-0.142517,0.308167,0.939819
336716491014,-0.0390625,-0.140198,0.309326,0.939697
336716513587,-0.0391235,-0.138489,0.309875,0.939758
336716535986,-0.0391235,-0.138184,0.309509,0.939941
336716551006,-0.0388794,-0.138611,0.30835,0.940247
336716573504,-0.0389404,-0.138611,0.307617,0.940491
336716595956,-0.0393677,-0.137695,0.30719,0.940796
336716612444,-0.0401611,-0.136597,0.306824,0.94104
336716633462,-0.0419312,-0.135071,0.305969,0.941467
336716655963,-0.0429688,-0.133118,0.305298,0.941895
336716672519,-0.0428467,-0.131348,0.304749,0.942322
336716693500,-0.0432129,-0.131042,0.304199,0.942505
336716716028,-0.0444336,-0.131287,0.304016,0.942505
336716732459,-0.0446167,-0.131042,0.304504,0.942383
336716753477,-0.0440674,-0.131042,0.304932,0.942261
336716775132,-0.0446777,-0.131836,0.305054,0.942078
336716797771,-0.0446777,-0.132263,0.305359,0.941895
336716812728,-0.0445557,-0.132385,0.305847,0.941772
336716835254,-0.0452271,-0.132812,0.306213,0.941528
336716857769,-0.0455322,-0.132996,0.306641,0.941345
336716872685,-0.0456543,-0.132996,0.306641,0.941345
336716895208,-0.0457764,-0.13324,0.306458,0.941345
336716917699,-0.0458374,-0.133118,0.306274,0.941467
336716932770,-0.0460205,-0.132385,0.306274,0.941528
336716955288,-0.0464478,-0.131836,0.306702,0.941467
336716970960,-0.0465698,-0.131775,0.306885,0.941406
336716992784,-0.046814,-0.132019,0.306519,0.941467
336717015161,-0.046936,-0.132507,0.306213,0.941467
336717030951,-0.0466919,-0.132935,0.306458,0.941345
336717052696,-0.0467529,-0.133423,0.306946,0.941162
336717075158,-0.0467529,-0.133789,0.307312,0.940979
336717090980,-0.0466309,-0.133911,0.307434,0.940918
336717112758,-0.0463867,-0.133911,0.307495,0.940918
336717135242,-0.0463867,-0.133911,0.307495,0.940918
336717151029,-0.0463867,-0.133911,0.307495,0.940918
336717172740,-0.0466309,-0.13385,0.307373,0.940918
336717195246,-0.046875,-0.133789,0.307007,0.94104
336717211640,-0.046814,-0.13385,0.30658,0.941162
336717232789,-0.046814,-0.13385,0.306335,0.941284
336717255224,-0.046875,-0.13385,0.306335,0.941284
336717271696,-0.046875,-0.133789,0.306335,0.941284
336717292762,-0.0466309,-0.133911,0.306213,0.941284
336717315165,-0.0463867,-0.134155,0.305969,0.941345
336717331658,-0.0461426,-0.13446,0.305908,0.941345
336717352656,-0.0461426,-0.134521,0.305908,0.941345
336717375293,-0.0462036,-0.13446,0.305908,0.941345
336717391004,-0.0464478,-0.134399,0.305847,0.941345
336717412756,-0.0465088,-0.134399,0.305847,0.941345
336717435215,-0.0465698,-0.134399,0.30603,0.941284
336717450991,-0.046875,-0.133972,0.306213,0.941284
336717472740,-0.0471191,-0.133423,0.306335,0.941345
336717495259,-0.0473022,-0.132935,0.306274,0.941406
336717510968,-0.0479126,-0.132751,0.30603,0.941467
336717534112,-0.0484619,-0.132568,0.305847,0.941528
336717557136,-0.0487061,-0.132141,0.305847,0.941589
336717570964,-0.0490723,-0.131897,0.306091,0.941528
336717594197,-0.0493774,-0.132141,0.306274,0.941406
336717615294,-0.0494995,-0.132385,0.306458,0.941284
336717631082,-0.0498047,-0.132141,0.306946,0.941162
336717654191,-0.0499878,-0.132019,0.307678,0.940918
336717675160,-0.0499878,-0.131836,0.308289,0.940735
336717690996,-0.0501099,-0.131409,0.308289,0.940796
336717714166,-0.050293,-0.13092,0.308289,0.940857
336717735196,-0.0505371,-0.130676,0.308533,0.940796
336717750982,-0.0509033,-0.130981,0.309204,0.940552
336717774185,-0.0507812,-0.130981,0.309509,0.94043
336717795224,-0.0505981,-0.130493,0.309326,0.940552
336717810961,-0.0507812,-0.129944,0.30896,0.940735
336717834170,-0.0510864,-0.129883,0.309021,0.940735
336717855244,-0.0513306,-0.130005,0.309204,0.940613
336717871057,-0.0513306,-0.130005,0.309204,0.940613
336717894148,-0.0511475,-0.130127,0.30896,0.940674
336717915192,-0.0511475,-0.130127,0.30896,0.940674
336717931042,-0.0508423,-0.130188,0.309082,0.940674
336717954183,-0.050415,-0.130249,0.309143,0.940674
336717975363,-0.0504761,-0.130188,0.309143,0.940674
336717991059,-0.0504761,-0.130188,0.309204,0.940674
336718014181,-0.0504761,-0.130188,0.309204,0.940674
336718035189,-0.050354,-0.130127,0.309387,0.940613
336718050990,-0.0502319,-0.130188,0.309631,0.940552
336718074128,-0.0501709,-0.130188,0.309631,0.940552
336718095280,-0.0501709,-0.130249,0.309631,0.940552
336718111029,-0.0501709,-0.130249,0.309631,0.940552
336718134216,-0.0501099,-0.130249,0.309631,0.940552
336718155250,-0.0501709,-0.130249,0.309631,0.940552
336718170980,-0.0501709,-0.13031,0.309631,0.940552
336718194216,-0.0501709,-0.13031,0.309631,0.940552
336718215187,-0.0501709,-0.13031,0.309631,0.940552
336718231048,-0.050293,-0.130493,0.30957,0.940491
336718254229,-0.050415,-0.130859,0.30957,0.94043
336718275261,-0.050415,-0.131226,0.30957,0.940369
336718291015,-0.050354,-0.13147,0.309631,0.940369
336718313595,-0.050293,-0.131531,0.309753,0.940308
336718335209,-0.0502319,-0.131714,0.309937,0.940186
336718351067,-0.050293,-0.131897,0.310059,0.940125
336718373559,-0.050293,-0.131897,0.310059,0.940125
336718395201,-0.050354,-0.131897,0.31012,0.940125
336718410972,-0.050354,-0.131897,0.31012,0.940125
336718433565,-0.050354,-0.13208,0.310242,0.940063
336718455319,-0.050415,-0.132446,0.31012,0.940063
336718471044,-0.050415,-0.132751,0.31012,0.940002
336718493501,-0.050415,-0.132751,0.31012,0.940002
336718516749,-0.0505981,-0.132996,0.310303,0.93988
336718531440,-0.0507202,-0.13324,0.310303,0.939819
336718553511,-0.0506592,-0.133423,0.310425,0.939819
336718576669,-0.0506592,-0.133423,0.310425,0.939819
336718591005,-0.0507202,-0.133728,0.310425,0.939758
336718613511,-0.0506592,-0.133972,0.310486,0.939697
336718636653,-0.0505981,-0.134216,0.310608,0.939636
336718651102,-0.0505981,-0.134216,0.310608,0.939636
336718680349,-0.0505981,-0.134216,0.310608,0.939636
336718696777,-0.0505371,-0.134399,0.310669,0.939575
336718711003,-0.050293,-0.134521,0.310791,0.939514
336718733570,-0.050293,-0.134766,0.310913,0.939453
336718756720,-0.050293,-0.135071,0.310974,0.939392
336718771135,-0.0502319,-0.135498,0.310974,0.939331
336718793602,-0.0498657,-0.135986,0.310974,0.93927
336718816736,-0.048645,-0.136475,0.310364,0.939453
336718831058,-0.0485229,-0.13739,0.309326,0.939697
336718853554,-0.0491943,-0.13855,0.307983,0.939941
336718876738,-0.0493164,-0.138794,0.307434,0.940063
336718890999,-0.0491333,-0.139038,0.307617,0.940002
336718913591,-0.0492554,-0.139526,0.3078,0.939819
336718936708,-0.0493164,-0.139404,0.307678,0.93988
336718957846,-0.0487061,-0.138794,0.307312,0.940125
336718981652,-0.048584,-0.138672,0.307129,0.940247
336718996733,-0.0488892,-0.138916,0.307007,0.940186
336719017851,-0.0488892,-0.138916,0.307007,0.940186
336719033628,-0.0488892,-0.138977,0.307007,0.940186
336719056686,-0.0485229,-0.138855,0.307068,0.940186
336719077755,-0.0484619,-0.138855,0.307068,0.940247
336719093565,-0.0485229,-0.138855,0.307068,0.940247
336719116779,-0.0485229,-0.138855,0.307068,0.940247
336719137790,-0.0485229,-0.138794,0.307068,0.940247
336719153597,-0.0485229,-0.138855,0.307068,0.940186
336719176802,-0.048584,-0.138855,0.307068,0.940186
336719197812,-0.048584,-0.138916,0.307068,0.940186
336719213561,-0.048584,-0.138916,0.307068,0.940186
336719236099,-0.048584,-0.138916,0.307068,0.940186
336719257848,-0.048584,-0.138916,0.307068,0.940186
336719273560,-0.048584,-0.138916,0.307068,0.940186
336719296057,-0.0487061,-0.138794,0.306946,0.940247
336719317827,-0.0487671,-0.138794,0.306946,0.940247
336719333616,-0.0487671,-0.138855,0.306946,0.940247
336719356077,-0.0487671,-0.138855,0.306946,0.940247
336719377946,-0.0488892,-0.138916,0.306702,0.940308
336719393656,-0.0488281,-0.138916,0.306702,0.940308
336719416158,-0.0490723,-0.139099,0.306641,0.940308
336719439272,-0.0490723,-0.139099,0.306641,0.940308
336719453604,-0.0496216,-0.13916,0.306458,0.940308
336719476077,-0.0501099,-0.139221,0.306152,0.940369
336719499238,-0.0505371,-0.139404,0.305786,0.94043
336719513648,-0.0515137,-0.139587,0.305359,0.940491
336719536128,-0.0523071,-0.139648,0.305115,0.940552
336719559261,-0.0527954,-0.139465,0.304871,0.940613
336719573612,-0.0530396,-0.139404,0.304565,0.940735
336719596079,-0.0533447,-0.13916,0.304321,0.940796
336719619243,-0.0536499,-0.138916,0.304138,0.940918
336719633639,-0.0539551,-0.138611,0.304077,0.940918
336719656173,-0.0539551,-0.138306,0.303955,0.940979
336719679288,-0.0539551,-0.138306,0.303955,0.94104
336719693654,-0.0539551,-0.138306,0.303955,0.940979
336719716063,-0.0539551,-0.138306,0.303955,0.940979
336719739308,-0.053772,-0.138184,0.30426,0.940979
336719760358,-0.0535889,-0.137878,0.304443,0.940979
336719776154,-0.0535278,-0.137512,0.304504,0.940979
336719799237,-0.0535278,-0.137512,0.304504,0.940979
336719814465,-0.0535278,-0.137512,0.304504,0.940979
336719836071,-0.0535889,-0.137146,0.304626,0.940979
336719859414,-0.0537109,-0.136414,0.304932,0.940979
336719873596,-0.0540771,-0.13501,0.305237,0.94104
336719895365,-0.0539551,-0.134033,0.305603,0.941101
336719909684,-0.053894,-0.133423,0.305847,0.941101
336719932887,-0.0540771,-0.13324,0.306213,0.940979
336719955367,-0.0543213,-0.133118,0.306763,0.940857
336719969712,-0.0545654,-0.132996,0.307373,0.940613
336719992949,-0.0545044,-0.132629,0.3078,0.940552
336720015318,-0.0542603,-0.131897,0.307861,0.940674
336720029743,-0.0541992,-0.131165,0.307739,0.940796
336720052902,-0.0545044,-0.130798,0.307556,0.940918
336720075415,-0.0548706,-0.130554,0.30719,0.940979
336720089753,-0.0548706,-0.130554,0.30719,0.94104
336720112916,-0.0546265,-0.130493,0.307373,0.940979
336720135294,-0.0545044,-0.130798,0.307556,0.940857
336720149747,-0.0545044,-0.130798,0.307556,0.940857
336720172872,-0.0544434,-0.130798,0.307556,0.940857
336720195396,-0.0543823,-0.130615,0.307556,0.940918
336720209715,-0.0542603,-0.130737,0.307678,0.940857
336720232888,-0.0540161,-0.13092,0.307922,0.940796
336720255291,-0.053894,-0.130859,0.3078,0.940796
336720269748,-0.053894,-0.130615,0.307678,0.940918
336720292931,-0.0541992,-0.130676,0.307556,0.940918
336720315311,-0.0545654,-0.130859,0.307556,0.940857
336720329734,-0.0545654,-0.130859,0.307556,0.940857
336720352182,-0.0545654,-0.130859,0.307556,0.940857
336720367123,-0.0545654,-0.130859,0.307556,0.940857
336720389702,-0.0545654,-0.130859,0.307556,0.940857
336720412244,-0.0545654,-0.130798,0.307556,0.940857
336720427229,-0.0545654,-0.130859,0.307556,0.940857
336720449670,-0.0547485,-0.131104,0.307495,0.940857
336720472202,-0.0550537,-0.131531,0.307434,0.940796
336720487138,-0.0551147,-0.131836,0.307373,0.940796
336720509629,-0.0551758,-0.132385,0.30719,0.940735
336720532226,-0.0553589,-0.133057,0.307068,0.940674
336720547256,-0.0553589,-0.133545,0.306824,0.940674
336720569744,-0.0552368,-0.13385,0.306519,0.940735
336720592201,-0.0549316,-0.134216,0.306152,0.940857
336720607196,-0.0547485,-0.134766,0.305481,0.940979
336720629696,-0.0548096,-0.135071,0.304626,0.941223
336720652250,-0.0549927,-0.135254,0.304199,0.941345
336720667207,-0.0546875,-0.135498,0.304016,0.941345
336720689724,-0.0545654,-0.135742,0.303772,0.941406
336720712218,-0.0543213,-0.135742,0.303528,0.941528
336720727254,-0.0540161,-0.13562,0.303406,0.941589
336720749705,-0.0540161,-0.135559,0.303406,0.941589
336720772283,-0.0540771,-0.135559,0.303223,0.94165
336720787233,-0.0540771,-0.135559,0.302917,0.941711
336720809657,-0.0539551,-0.135498,0.302734,0.941833
336720832221,-0.0540161,-0.135559,0.302734,0.941833
336720847245,-0.053894,-0.135742,0.302917,0.941711
336720869740,-0.053894,-0.135742,0.302917,0.941711
336720892295,-0.053894,-0.135742,0.302979,0.941711
336720907221,-0.053894,-0.135681,0.302979,0.941711
336720929746,-0.0539551,-0.135681,0.302979,0.941711
336720952164,-0.0541992,-0.135681,0.303284,0.941589
336720967260,-0.0544434,-0.135803,0.303589,0.941467
336720989737,-0.0543213,-0.135559,0.303772,0.941467
336721012217,-0.0545044,-0.135376,0.303894,0.941406
336721027240,-0.0546875,-0.135254,0.304016,0.941406
336721049778,-0.0548706,-0.135193,0.304016,0.941406
336721072271,-0.0552979,-0.135193,0.303894,0.941406
336721087246,-0.0553589,-0.135071,0.303894,0.941406
336721109803,-0.0553589,-0.135071,0.303894,0.941406
336721132242,-0.0553589,-0.135071,0.303894,0.941406
336721148665,-0.0553589,-0.135071,0.303894,0.941406
336721169713,-0.0551758,-0.134949,0.303711,0.941528
336721192268,-0.0551758,-0.134888,0.303711,0.941528
336721208730,-0.0551758,-0.134888,0.303711,0.941528
336721229764,-0.0551758,-0.134888,0.303711,0.941528
336721252228,-0.0551758,-0.134888,0.303711,0.941528
336721268701,-0.0547485,-0.134705,0.303833,0.941528
336721289702,-0.0547485,-0.134705,0.303833,0.941528
336721312290,-0.0547485,-0.134705,0.303833,0.941528
336721328713,-0.0547485,-0.134705,0.303833,0.941528
336721349753,-0.0547485,-0.134705,0.303833,0.941528
336721372286,-0.0545654,-0.134583,0.303833,0.941589
336721388659,-0.0544434,-0.134521,0.303955,0.941528
336721409760,-0.0544434,-0.134521,0.303955,0.941528
336721432242,-0.0544434,-0.134521,0.303955,0.941528
336721448684,-0.0543823,-0.134033,0.303894,0.941589
336721469732,-0.0543823,-0.133728,0.303833,0.941711
336721492276,-0.0544434,-0.133728,0.303833,0.941711
336721508671,-0.0543213,-0.133484,0.304016,0.94165
336721529668,-0.0539551,-0.133118,0.304565,0.941589
336721552307,-0.053772,-0.132812,0.305115,0.941467
336721568709,-0.0536499,-0.132446,0.305481,0.941406
336721589752,-0.0533447,-0.131958,0.305603,0.941406
336721612194,-0.0528564,-0.131409,0.305664,0.941528
336721628742,-0.0527954,-0.131165,0.305786,0.941528
336721649779,-0.0528564,-0.131165,0.30603,0.941406
336721672225,-0.0525513,-0.131042,0.306274,0.941345
336721688602,-0.052063,-0.130798,0.306335,0.941406
336721709839,-0.0518188,-0.130432,0.306396,0.941467
336721732277,-0.0518188,-0.130432,0.306396,0.941467
336721748684,-0.0518188,-0.130432,0.306396,0.941467
336721769763,-0.0515747,-0.130371,0.306335,0.941528
336721792296,-0.0513916,-0.130371,0.306274,0.941528
336721808716,-0.0511475,-0.130493,0.306335,0.941528
336721829764,-0.0511475,-0.130493,0.306335,0.941528
336721852189,-0.0511475,-0.130493,0.306335,0.941528
336721868725,-0.0510254,-0.130371,0.306396,0.941528
336721889814,-0.0509644,-0.130127,0.306458,0.941528
336721912244,-0.0509644,-0.130127,0.306458,0.941528
336721928752,-0.0509644,-0.130066,0.306458,0.941528
336721949807,-0.0508423,-0.130005,0.306641,0.941467
336721972322,-0.0505981,-0.1297,0.307068,0.941406
336721988690,-0.0504761,-0.129333,0.307312,0.941406
336722009842,-0.0504761,-0.129333,0.307312,0.941406
336722032264,-0.050293,-0.129211,0.307312,0.941406
336722048755,-0.050293,-0.129639,0.307312,0.941345
336722069785,-0.050415,-0.129944,0.307129,0.941345
336722092291,-0.0505981,-0.130249,0.306824,0.941406
336722108722,-0.0506592,-0.130737,0.306396,0.941467
336722131212,-0.0512085,-0.131287,0.305847,0.941528
336722152303,-0.0516357,-0.131836,0.305786,0.941467
336722168739,-0.0518188,-0.132446,0.305786,0.941345
336722197963,-0.052063,-0.132751,0.305725,0.941345
336722212264,-0.0521851,-0.133118,0.305603,0.941345
336722228683,-0.0515137,-0.133667,0.305298,0.941406
336722251172,-0.052063,-0.135315,0.304321,0.941467
336722272300,-0.0532837,-0.137451,0.303345,0.941345
336722288687,-0.0532227,-0.138672,0.302917,0.941345
336722311128,-0.0526123,-0.139587,0.302673,0.941284
336722332382,-0.0524292,-0.140808,0.302429,0.941223
336722348681,-0.052124,-0.141846,0.302246,0.941162
336722371237,-0.0516968,-0.142212,0.302124,0.941162
336722392288,-0.0513306,-0.141907,0.302124,0.941223
336722408802,-0.0514526,-0.141846,0.302124,0.941223
336722431238,-0.0518188,-0.141296,0.302307,0.941223
336722452302,-0.0523071,-0.14032,0.302856,0.941162
336722468678,-0.0525513,-0.139221,0.303101,0.941223
336722491246,-0.0526733,-0.138306,0.303223,0.941345
336722512271,-0.0531006,-0.137695,0.303284,0.941345
336722528777,-0.0534058,-0.137146,0.30365,0.941345
336722551174,-0.0535278,-0.136841,0.303894,0.941284
336722572228,-0.0534668,-0.137085,0.304138,0.941162
336722588734,-0.0535278,-0.137817,0.304016,0.941101
336722611186,-0.0537109,-0.138245,0.303772,0.941101
336722632286,-0.0537109,-0.138245,0.303772,0.941101
336722648779,-0.053894,-0.138306,0.303894,0.94104
336722671254,-0.0541382,-0.138367,0.303833,0.94104
336722692290,-0.0541992,-0.138306,0.303833,0.94104
336722708782,-0.0541992,-0.138245,0.303894,0.94104
336722731251,-0.0543823,-0.138184,0.304016,0.940979
336722752324,-0.0543213,-0.138245,0.304016,0.940979
336722768714,-0.0544434,-0.138062,0.303894,0.94104
336722791151,-0.0544434,-0.138062,0.303894,0.94104
336722812337,-0.0541382,-0.138306,0.303955,0.940979
336722828711,-0.0541382,-0.138306,0.303955,0.940979
336722851259,-0.053894,-0.138245,0.30365,0.941162
336722872334,-0.053894,-0.136597,0.303162,0.941528
336722888757,-0.0551758,-0.13269,0.303101,0.942017
336722911199,-0.0564575,-0.128723,0.304443,0.942078
336722932332,-0.0591431,-0.127075,0.305054,0.941956
336722948752,-0.0606689,-0.125977,0.305115,0.941956
336722971264,-0.0588379,-0.124268,0.305847,0.942078
336722992325,-0.0569458,-0.123657,0.306213,0.942139
336723008004,-0.0571899,-0.125,0.305786,0.942078
336723030532,-0.0576782,-0.126953,0.305542,0.941895
336723052975,-0.057312,-0.128845,0.305664,0.941589
336723067988,-0.057312,-0.13031,0.30542,0.941467
336723090425,-0.0574951,-0.130371,0.30481,0.94165
336723113035,-0.0566406,-0.129883,0.304138,0.942017
336723127984,-0.0563965,-0.130981,0.302917,0.942261
336723150507,-0.0580444,-0.13269,0.301697,0.942322
336723173009,-0.0579834,-0.133911,0.300293,0.942566
336723187991,-0.0585327,-0.134644,0.299194,0.94281
336723210443,-0.0592651,-0.134888,0.298096,0.943054
336723233044,-0.0601196,-0.135742,0.29718,0.943176
336723249446,-0.0596924,-0.137024,0.296448,0.943237
336723270504,-0.0596924,-0.137695,0.295837,0.943359
336723292973,-0.0601807,-0.137451,0.295654,0.94342
336723309365,-0.0606079,-0.137024,0.295776,0.94342
336723330614,-0.0610962,-0.136475,0.295654,0.943481
336723352950,-0.0617065,-0.136169,0.295105,0.943665
336723369330,-0.0623169,-0.136047,0.294739,0.943726
336723390541,-0.0628052,-0.135742,0.294861,0.943726
336723413084,-0.0633545,-0.135498,0.295349,0.943604
336723429446,-0.0635376,-0.135254,0.295715,0.943481
336723450509,-0.0633545,-0.135437,0.295837,0.94342
336723472992,-0.0634155,-0.135803,0.296082,0.943298
336723489455,-0.0634155,-0.136108,0.296387,0.943176
336723510494,-0.0635376,-0.136169,0.296692,0.943054
336723533024,-0.0636597,-0.135925,0.296875,0.942993
336723549440,-0.0635376,-0.135376,0.297058,0.943054
336723570503,-0.0634155,-0.134766,0.297302,0.943054
336723592989,-0.0632324,-0.133972,0.297729,0.943054
336723609411,-0.0635376,-0.133057,0.29834,0.942993
336723630642,-0.0637817,-0.131714,0.299072,0.942932
336723653074,-0.0634766,-0.129883,0.300415,0.942749
336723669468,-0.0634766,-0.127136,0.301392,0.94281
336723690442,-0.0638428,-0.125122,0.302246,0.94281
336723713075,-0.0634766,-0.124512,0.302856,0.942688
336723729415,-0.0634155,-0.124573,0.302795,0.942688
336723750593,-0.0630493,-0.125549,0.302124,0.94281
336723773022,-0.0641479,-0.12677,0.30188,0.942688
336723789405,-0.0646973,-0.127747,0.301819,0.942505
336723810507,-0.0650024,-0.128357,0.301697,0.942444
336723833149,-0.0647583,-0.128723,0.301392,0.942505
336723849405,-0.0650024,-0.129333,0.301086,0.942505
336723870578,-0.0648193,-0.129883,0.301147,0.942444
336723893050,-0.0647583,-0.130249,0.30127,0.942322
336723909480,-0.0647583,-0.130554,0.301208,0.942322
336723930553,-0.0648804,-0.130432,0.301025,0.942383
336723953037,-0.0648804,-0.130127,0.30072,0.942505
336723969486,-0.0648804,-0.130066,0.30072,0.942566
336723990507,-0.0644531,-0.130188,0.300537,0.942627
336724013012,-0.0636597,-0.130798,0.300232,0.942688
336724028775,-0.0627441,-0.131592,0.299561,0.94281
336724050541,-0.062561,-0.133118,0.298584,0.942932
336724073034,-0.0629272,-0.134949,0.297852,0.942871
336724088787,-0.0629883,-0.136658,0.297363,0.94281
336724110491,-0.0633545,-0.138123,0.297119,0.942627
336724133021,-0.0637817,-0.138855,0.296875,0.942566
336724148734,-0.0638428,-0.139221,0.296631,0.942566
336724171994,-0.0639648,-0.139099,0.296631,0.942566
336724193120,-0.0640259,-0.138062,0.297119,0.942566
336724208837,-0.0641479,-0.137207,0.297302,0.942688
336724231935,-0.0645752,-0.13678,0.297119,0.942749
336724253124,-0.0646973,-0.136475,0.29718,0.942749
336724268810,-0.0645142,-0.136108,0.297424,0.942749
336724291970,-0.0650024,-0.135437,0.297668,0.942749
336724313033,-0.0654297,-0.134949,0.298157,0.942627
336724328782,-0.0654297,-0.134155,0.298645,0.942566
336724352020,-0.0654907,-0.133057,0.299011,0.942627
336724373089,-0.0654297,-0.132202,0.299683,0.942566
336724388800,-0.0654297,-0.131592,0.300171,0.942444
336724411941,-0.0658569,-0.130676,0.300537,0.942444
336724432982,-0.0661011,-0.129822,0.30127,0.942322
336724448831,-0.0653076,-0.129272,0.302124,0.9422
336724472034,-0.0651855,-0.129211,0.301941,0.942261
336724493083,-0.0651245,-0.1297,0.30127,0.942383
336724508756,-0.06427,-0.130554,0.300598,0.942566
336724531998,-0.0643921,-0.132263,0.299805,0.942566
336724553056,-0.0641479,-0.133911,0.299011,0.942566
336724568933,-0.0643311,-0.135315,0.298035,0.942688
336724591997,-0.06427,-0.136658,0.297668,0.942627
336724613681,-0.0640259,-0.137634,0.297363,0.942566
336724628810,-0.064209,-0.138062,0.296997,0.942627
336724651991,-0.0641479,-0.137695,0.296692,0.942749
336724673050,-0.0645142,-0.137573,0.296814,0.942749
336724689001,-0.0645142,-0.137573,0.297058,0.942688
336724712013,-0.0645142,-0.137329,0.297424,0.942566
336724733105,-0.0648193,-0.136841,0.297974,0.942444
336724748977,-0.0647583,-0.136536,0.298767,0.942261
336724772127,-0.0643921,-0.136169,0.2995,0.942078
336724793059,-0.0644531,-0.135925,0.299988,0.941956
336724808807,-0.0644531,-0.136169,0.300354,0.941833
336724832064,-0.0643921,-0.13623,0.300354,0.941833
336724853252,-0.0648193,-0.136597,0.300476,0.941711
336724868851,-0.0647583,-0.136963,0.300659,0.941589
336724891966,-0.0646973,-0.136963,0.300659,0.941589
336724913057,-0.0648804,-0.137024,0.300537,0.941589
336724928814,-0.0648804,-0.137024,0.300537,0.941589
336724951308,-0.0648804,-0.137024,0.300537,0.941589
336724973054,-0.0648804,-0.137024,0.300537,0.941589
336724988807,-0.0645142,-0.137268,0.300537,0.941589
336725011297,-0.064209,-0.13739,0.300232,0.941711
336725033038,-0.0640869,-0.137512,0.300354,0.94165
336725048867,-0.0636597,-0.137817,0.300659,0.941528
336725071348,-0.0635986,-0.137817,0.300659,0.941528
336725093132,-0.0639038,-0.137695,0.300476,0.941589
336725108875,-0.0639038,-0.137634,0.300476,0.941589
336725131355,-0.0636597,-0.137512,0.300659,0.941589
336725154596,-0.0635986,-0.137634,0.300903,0.941467
336725168835,-0.0633545,-0.137878,0.301025,0.941406
336725191360,-0.0631714,-0.137817,0.300964,0.941467
336725214462,-0.0632935,-0.137634,0.300842,0.941528
336725228920,-0.0630493,-0.137695,0.300964,0.941528
336725251404,-0.0630493,-0.137756,0.300903,0.941528
336725274557,-0.0629883,-0.137756,0.300781,0.941528
336725288843,-0.0629883,-0.137756,0.300781,0.941589
336725311320,-0.0629883,-0.137756,0.300781,0.941589
336725334606,-0.0629883,-0.137756,0.300781,0.941589
336725348832,-0.0629272,-0.137756,0.300537,0.94165
336725371382,-0.0628662,-0.137695,0.300415,0.941711
336725394580,-0.0628662,-0.137634,0.300415,0.941711
336725408866,-0.0626221,-0.13739,0.300476,0.941711
336725431353,-0.062561,-0.13678,0.300476,0.941833
336725454632,-0.062439,-0.136353,0.300537,0.941895
336725468782,-0.0625,-0.136108,0.300659,0.941833
336725491383,-0.0623169,-0.135742,0.300842,0.941833
336725514561,-0.0620117,-0.135132,0.301147,0.941895
336725528863,-0.0617676,-0.134644,0.301331,0.941895
336725551342,-0.0615845,-0.13446,0.301514,0.941895
336725574566,-0.0613403,-0.134216,0.301575,0.941895
336725588842,-0.0609131,-0.133667,0.301819,0.941956
336725611261,-0.0604858,-0.133118,0.302124,0.941956
336725634574,-0.0601807,-0.132874,0.30249,0.941895
336725655619,-0.0597534,-0.132629,0.303162,0.941772
336725671418,-0.05896,-0.132019,0.303772,0.94165
336725694564,-0.0585327,-0.131287,0.304199,0.94165
336725715698,-0.0585327,-0.130981,0.304382,0.94165
336725731325,-0.0584106,-0.130676,0.304443,0.94165
336725754534,-0.0584106,-0.130249,0.304504,0.941711
336725775533,-0.0585327,-0.129944,0.304749,0.94165
336725791311,-0.0584106,-0.129517,0.304932,0.94165
336725814567,-0.0583496,-0.128967,0.304932,0.941772
336725835623,-0.0581055,-0.128601,0.304932,0.941833
336725851347,-0.0580444,-0.128662,0.304932,0.941833
336725873847,-0.0581665,-0.128418,0.305115,0.941772
336725895524,-0.0579834,-0.127869,0.305359,0.941772
336725911306,-0.0581665,-0.127441,0.305237,0.941895
336725933888,-0.0585327,-0.127441,0.304993,0.941956
336725955629,-0.0587158,-0.12738,0.304688,0.942017
336725971411,-0.059021,-0.12738,0.304504,0.942078
336725993926,-0.059082,-0.127625,0.304321,0.942139
336726015600,-0.0592651,-0.128235,0.304016,0.942078
336726031346,-0.0592041,-0.128967,0.30365,0.942139
336726053886,-0.0592041,-0.129333,0.303528,0.942139
336726077033,-0.0593262,-0.129639,0.303528,0.942078
336726099581,-0.0595093,-0.129944,0.303589,0.942017
336726104928,-0.0596313,-0.130066,0.303528,0.941956
336726127463,-0.0596313,-0.130066,0.303528,0.941956
336726150624,-0.0598145,-0.130188,0.303528,0.941956
336726164955,-0.0596313,-0.130432,0.303406,0.941956
336726187447,-0.0588379,-0.131226,0.302673,0.942139
336726210550,-0.0596924,-0.133667,0.301086,0.942261
336726224963,-0.0610352,-0.135681,0.30011,0.9422
336726247432,-0.0608521,-0.136719,0.299683,0.9422
336726270670,-0.0611572,-0.138,0.299194,0.942139
336726286374,-0.0616455,-0.13916,0.298645,0.942078
336726307525,-0.0615845,-0.139954,0.29834,0.942078
336726330646,-0.0612793,-0.140076,0.298157,0.942139
336726344985,-0.0617065,-0.139893,0.297913,0.942261
336726367414,-0.062561,-0.13916,0.297729,0.942322
336726390603,-0.0629272,-0.137512,0.297241,0.942749
336726413149,-0.0639648,-0.13446,0.29541,0.943665
336726427396,-0.0654907,-0.1297,0.293274,0.944885
336726450668,-0.0681152,-0.124084,0.292908,0.945557
336726465027,-0.0705566,-0.120728,0.294434,0.945374
336726487431,-0.071167,-0.11908,0.296631,0.944824
336726510583,-0.069519,-0.117249,0.29834,0.944641
336726524952,-0.0679932,-0.11615,0.298645,0.944763
336726547440,-0.0679932,-0.116577,0.298889,0.944641
336726570599,-0.0684814,-0.117493,0.299744,0.944275
336726584982,-0.0692749,-0.118347,0.300842,0.943726
336726607429,-0.0708008,-0.118225,0.301819,0.943298
336726630630,-0.0718384,-0.11676,0.302734,0.943115
336726644987,-0.0723877,-0.114746,0.303955,0.942932
336726667492,-0.0725098,-0.113281,0.305115,0.942749
336726690626,-0.0725708,-0.112244,0.306213,0.942505
336726704937,-0.0724487,-0.112,0.306946,0.942322
336726727440,-0.0720825,-0.11145,0.307617,0.9422
336726750657,-0.0726318,-0.109619,0.308228,0.942139
336726764989,-0.0740356,-0.106079,0.309448,0.942017
336726787392,-0.0744629,-0.102173,0.310303,0.942139
336726810608,-0.072998,-0.0998535,0.30835,0.943176
336726825068,-0.0742188,-0.101501,0.305115,0.94397
336726847490,-0.0741577,-0.104858,0.302917,0.944275
336726870609,-0.0740967,-0.1073,0.302673,0.944092
336726884993,-0.0741577,-0.108093,0.303711,0.943665
336726907466,-0.0751343,-0.107971,0.304565,0.943359
336726930576,-0.0758667,-0.106995,0.304626,0.943359
336726953122,-0.0756226,-0.10553,0.304321,0.943665
336726967519,-0.0750732,-0.104187,0.303894,0.94397
336726990778,-0.0756226,-0.102966,0.303528,0.944153
336727004963,-0.0755005,-0.10199,0.303406,0.944336
336727027446,-0.0750732,-0.101624,0.303162,0.944458
336727050047,-0.0751953,-0.102722,0.302917,0.944458
336727065033,-0.0757446,-0.103638,0.30304,0.944275
336727087421,-0.0760498,-0.103149,0.30304,0.944275
336727110001,-0.0766602,-0.10144,0.303406,0.944336
336727125030,-0.0773315,-0.0997314,0.303406,0.944458
336727147540,-0.076355,-0.0995483,0.301697,0.945068
336727170042,-0.0765991,-0.102966,0.298706,0.945618
336727184953,-0.0789185,-0.108215,0.296265,0.945618
336727207537,-0.0795898,-0.109924,0.296448,0.945312
336727229962,-0.0778198,-0.109619,0.297607,0.945129
336727245062,-0.0795898,-0.110291,0.298462,0.944641
336727267503,-0.0817261,-0.111328,0.298584,0.944275
336727289971,-0.0807495,-0.112,0.298462,0.944336
336727304922,-0.079834,-0.112915,0.297974,0.944458
336727327597,-0.0799561,-0.113525,0.297302,0.94458
336727349970,-0.0809937,-0.11377,0.29718,0.944519
336727365058,-0.0814819,-0.113647,0.298279,0.944153
336727387603,-0.0818481,-0.112793,0.299866,0.943726
336727410089,-0.0814209,-0.111145,0.301453,0.94342
336727425085,-0.079895,-0.109009,0.301575,0.943787
336727447466,-0.0794678,-0.109375,0.299866,0.944336
336727470036,-0.0807495,-0.112183,0.298218,0.944397
336727485049,-0.081665,-0.114197,0.298645,0.94397
336727507658,-0.0804443,-0.114319,0.300781,0.943359
336727530120,-0.0806885,-0.115051,0.302795,0.942627
336727545219,-0.0808105,-0.115479,0.30365,0.942261
336727567516,-0.0800171,-0.114929,0.303833,0.942322
336727589974,-0.0797119,-0.114502,0.303955,0.942383
336727604998,-0.079895,-0.114075,0.30481,0.942139
336727627498,-0.0805054,-0.113281,0.305725,0.941895
336727650019,-0.0812988,-0.111572,0.306274,0.941833
336727664994,-0.0809326,-0.110413,0.306702,0.941895
336727687515,-0.0797729,-0.110596,0.306335,0.942078
336727709971,-0.0801392,-0.111633,0.305847,0.942078
336727725059,-0.0795898,-0.11261,0.306274,0.941895
336727747492,-0.0786743,-0.113525,0.307007,0.941589
336727770033,-0.0791016,-0.114319,0.30719,0.941406
336727786392,-0.0789795,-0.114868,0.307068,0.941406
336727807610,-0.0786133,-0.114807,0.307007,0.941467
336727830159,-0.0784912,-0.114624,0.307129,0.941467
336727846469,-0.0788574,-0.114929,0.307495,0.941223
336727867482,-0.0787964,-0.11499,0.307861,0.941101
336727890039,-0.0787354,-0.114075,0.308167,0.941162
336727906437,-0.0787354,-0.112976,0.308655,0.941101
336727927544,-0.0787964,-0.112488,0.309265,0.940979
336727950067,-0.0787354,-0.112549,0.309265,0.940979
336727966368,-0.0787964,-0.112854,0.309082,0.940979
336727987606,-0.0786743,-0.112854,0.309082,0.940979
336728009978,-0.0784912,-0.112244,0.309387,0.940979
336728026449,-0.0787354,-0.112183,0.30957,0.940918
336728047557,-0.0786743,-0.112366,0.30957,0.940918
336728070020,-0.0783691,-0.11261,0.309631,0.940857
336728086519,-0.078186,-0.112671,0.309875,0.940796
336728107550,-0.0780029,-0.112793,0.310242,0.940674
336728131433,-0.0780029,-0.112915,0.310547,0.940552
336728146433,-0.0780029,-0.112915,0.310547,0.940552
336728167520,-0.078064,-0.112488,0.310669,0.940552
336728190041,-0.0780029,-0.112061,0.310791,0.940613
336728206517,-0.078125,-0.111511,0.310791,0.940613
336728227503,-0.078125,-0.110901,0.310608,0.940735
336728250028,-0.0780029,-0.110413,0.310547,0.940857
336728266521,-0.078064,-0.110107,0.310547,0.940918
336728287530,-0.0783691,-0.110168,0.310486,0.940857
336728310005,-0.0783691,-0.110168,0.310486,0.940857
336728326582,-0.078186,-0.110291,0.310669,0.940796
336728347565,-0.078186,-0.110291,0.310669,0.940796
336728370107,-0.078186,-0.110291,0.310669,0.940796
336728392586,-0.0782471,-0.110291,0.310669,0.940796
336728407530,-0.078186,-0.109985,0.310608,0.940857
336728430070,-0.0782471,-0.109436,0.310547,0.940918
336728446601,-0.0784302,-0.109192,0.31073,0.940918
336728467602,-0.0783691,-0.10907,0.310791,0.940918
336728490062,-0.0784302,-0.108582,0.310608,0.94104
336728506553,-0.078064,-0.108154,0.310547,0.941101
336728527615,-0.0778198,-0.108032,0.310608,0.941101
336728550104,-0.0775146,-0.107971,0.310852,0.941101
